time,u0,u1,tau
0.000000000000000000000000000000000000000000000000e+00,8.000000000000000444089209850062616169452667236328e-01,6.000000000000000888178419700125232338905334472656e-01,1.000000000000000020816681711721685132943093776703e-02
1.000000000000000020816681711721685132943093776703e-02,8.212915272800865862379282589245121926069259643555e-01,5.667447014875406363643151053111068904399871826172e-01,1.000000000000000020816681711721685132943093776703e-02
2.000000000000000041633363423443370265886187553406e-02,8.410752537165806508312471123645082116127014160156e-01,5.329310363597482558262186103092972189188003540039e-01,1.000000000000000020816681711721685132943093776703e-02
2.999999999999999888977697537484345957636833190918e-02,8.593485711780511904223089914012234658002853393555e-01,4.986184961675257376612080406630411744117736816406e-01,1.000000000000000020816681711721685132943093776703e-02
4.000000000000000083266726846886740531772375106812e-02,8.761116969046036651036502007627859711647033691406e-01,4.638664708062785746456313518137903884053230285645e-01,1.000000000000000020816681711721685132943093776703e-02
5.000000000000000277555756156289135105907917022705e-02,8.913676591950993044477513649326283484697341918945e-01,4.287340764116965852181806440057698637247085571289e-01,1.000000000000000020816681711721685132943093776703e-02
6.000000000000000471844785465691529680043458938599e-02,9.051222473003937007973718209541402757167816162109e-01,3.932799760263629984535782568855211138725280761719e-01,1.000000000000000020816681711721685132943093776703e-02
7.000000000000000666133814775093924254179000854492e-02,9.173839280643929505743017216445878148078918457031e-01,3.575621992755200762026390748360427096486091613770e-01,1.000000000000000020816681711721685132943093776703e-02
8.000000000000000166533453693773481063544750213623e-02,9.281637328359022554025159479351714253425598144531e-01,3.216379667463682423544923949521034955978393554688e-01,1.000000000000000020816681711721685132943093776703e-02
8.999999999999999666933092612453037872910499572754e-02,9.374751189207655155399834256968460977077484130859e-01,2.855635240526651075221309383778134360909461975098e-01,1.000000000000000020816681711721685132943093776703e-02
9.999999999999999167332731531132594682276248931885e-02,9.453338103483179821751036797650158405303955078125e-01,2.493939897323724230737695961579447612166404724121e-01,1.000000000000000020816681711721685132943093776703e-02
1.099999999999999866773237044981215149164199829102e-01,9.517576229953806921102454907668288797140121459961e-01,2.131832202193462422190606275762547738850116729736e-01,1.000000000000000020816681711721685132943093776703e-02
1.199999999999999816813200936849170830100774765015e-01,9.567662791630385799024338666640687733888626098633e-01,1.769836941973187416365931312611792236566543579102e-01,1.000000000000000020816681711721685132943093776703e-02
1.299999999999999766853164828717126511037349700928e-01,9.603812165628031749520232551731169223785400390625e-01,1.408464177277829465495528893370646983385086059570e-01,1.000000000000000020816681711721685132943093776703e-02
1.399999999999999855671006798729649744927883148193e-01,9.626253963712557704113237377896439284086227416992e-01,1.048208506784514826293275291391182690858840942383e-01,1.000000000000000020816681711721685132943093776703e-02
1.499999999999999944488848768742172978818416595459e-01,9.635231145900392535352807499293703585863113403320e-01,6.895485419372560098594249211600981652736663818359e-02,1.000000000000000020816681711721685132943093776703e-02
1.600000000000000033306690738754696212708950042725e-01,9.630998204351114422294699579651933163404464721680e-01,3.329465826322498822609219359947019256651401519775e-02,1.000000000000000020816681711721685132943093776703e-02
1.700000000000000122124532708767219446599483489990e-01,9.613819449074314515968353589414618909358978271484e-01,-2.115152128498908046250193137893802486360073089600e-03,1.000000000000000020816681711721685132943093776703e-02
1.800000000000000210942374678779742680490016937256e-01,9.583967420952683724522103148046880960464477539062e-01,-3.723163424254471304264413333839911501854658126831e-02,1.000000000000000020816681711721685132943093776703e-02
1.900000000000000299760216648792265914380550384521e-01,9.541721451504912021590598669718019664287567138672e-01,-7.201347052409121096694377683888887986540794372559e-02,1.000000000000000020816681711721685132943093776703e-02
2.000000000000000388578058618804789148271083831787e-01,9.487366382874524717294661968480795621871948242188e-01,-1.064209397680530300167589530246914364397525787354e-01,1.000000000000000020816681711721685132943093776703e-02
2.100000000000000477395900588817312382161617279053e-01,9.421191455889916799293359872535802423954010009766e-01,-1.404158791564821540109875286361784674227237701416e-01,1.000000000000000020816681711721685132943093776703e-02
2.200000000000000566213742558829835616052150726318e-01,9.343489368812061268698698768275789916515350341797e-01,-1.739616398304831001997428074901108630001544952393e-01,1.000000000000000020816681711721685132943093776703e-02
2.300000000000000655031584528842358849942684173584e-01,9.254555504650361363871979847317561507225036621094e-01,-2.070230385918546966994568947484367527067661285400e-01,1.000000000000000020816681711721685132943093776703e-02
2.400000000000000743849426498854882083833217620850e-01,9.154687320735496181001167315116617828607559204102e-01,-2.395663081880032851955775186070241034030914306641e-01,1.000000000000000020816681711721685132943093776703e-02
2.500000000000000555111512312578270211815834045410e-01,9.044183890619686971845681000559125095605850219727e-01,-2.715590484296558915211505791376112028956413269043e-01,1.000000000000000020816681711721685132943093776703e-02
2.600000000000000643929354282590793445706367492676e-01,8.923345585341169172721720315166749060153961181641e-01,-3.029701801360542567920219880761578679084777832031e-01,1.000000000000000020816681711721685132943093776703e-02
2.700000000000000732747196252603316679596900939941e-01,8.792473878640016948793345363810658454895019531250e-01,-3.337699036077114156384482157591264694929122924805e-01,1.000000000000000020816681711721685132943093776703e-02
2.800000000000000821565038222615839913487434387207e-01,8.651871258837627864934916033234912902116775512695e-01,-3.639296630030485202311751891102176159620285034180e-01,1.000000000000000020816681711721685132943093776703e-02
2.900000000000000910382880192628363147377967834473e-01,8.501841228777338166366916993865743279457092285156e-01,-3.934221176524023699805354681302560493350028991699e-01,1.000000000000000020816681711721685132943093776703e-02
3.000000000000000999200722162640886381268501281738e-01,8.342688374450090149636594105686526745557785034180e-01,-4.222211209906729934004943061154335737228393554688e-01,1.000000000000000020816681711721685132943093776703e-02
3.100000000000001088018564132653409615159034729004e-01,8.174718482675217279265211800520773977041244506836e-01,-4.503017074375522121876258552219951525330543518066e-01,1.000000000000000020816681711721685132943093776703e-02
3.200000000000001176836406102665932849049568176270e-01,7.998238688447506516965290757070761173963546752930e-01,-4.776400872107798289967206528672249987721443176270e-01,1.000000000000000020816681711721685132943093776703e-02
3.300000000000001265654248072678456082940101623535e-01,7.813557633269503366335584360058419406414031982422e-01,-5.042136487317758763992969761602580547332763671875e-01,1.000000000000000020816681711721685132943093776703e-02
3.400000000000001354472090042690979316830635070801e-01,7.620985616929649708595206902828067541122436523438e-01,-5.300009679824208008724895080376882106065750122070e-01,1.000000000000000020816681711721685132943093776703e-02
3.500000000000001443289932012703502550721168518066e-01,7.420834726723769536604891072784084826707839965820e-01,-5.549818239042336731614568634540773928165435791016e-01,1.000000000000000020816681711721685132943093776703e-02
3.600000000000001532107773982716025784611701965332e-01,7.213418930004298346148061682470142841339111328125e-01,-5.791372187034978802344653558975551277399063110352e-01,1.000000000000000020816681711721685132943093776703e-02
3.700000000000001620925615952728549018502235412598e-01,6.999054118125871415401206832029856741428375244141e-01,-6.024494017437562742856016484438441693782806396484e-01,1.000000000000000020816681711721685132943093776703e-02
3.800000000000001709743457922741072252392768859863e-01,6.778058092277128299230071206693537533283233642578e-01,-6.249018955750590409436995287251193076372146606445e-01,1.000000000000000020816681711721685132943093776703e-02
3.900000000000001798561299892753595486283302307129e-01,6.550750484279509455731727030070032924413681030273e-01,-6.464795225704033088121036598749924451112747192383e-01,1.000000000000000020816681711721685132943093776703e-02
4.000000000000001887379141862766118720173835754395e-01,6.317452608121012502806479460559785366058349609375e-01,-6.671684306152936283496046598884277045726776123047e-01,1.000000000000000020816681711721685132943093776703e-02
4.100000000000001976196983832778641954064369201660e-01,6.078487240699024241052939032670110464096069335938e-01,-6.869561163257679181626258468895684927701950073242e-01,1.000000000000000020816681711721685132943093776703e-02
4.200000000000002065014825802791165187954902648926e-01,5.834178332892328011638483076239936053752899169922e-01,-7.058314443512115898826664306398015469312667846680e-01,1.000000000000000020816681711721685132943093776703e-02
4.300000000000002153832667772803688421845436096191e-01,5.584850654590588492354186200827825814485549926758e-01,-7.237846614466111327956809873285237699747085571289e-01,1.000000000000000020816681711721685132943093776703e-02
4.400000000000002242650509742816211655735969543457e-01,5.330829379606786266876383706403430551290512084961e-01,-7.408074041687043864712336471711751073598861694336e-01,1.000000000000000020816681711721685132943093776703e-02
4.500000000000002331468351712828734889626502990723e-01,5.072439618418703721758333813340868800878524780273e-01,-7.568926992544718901356759488407988101243972778320e-01,1.000000000000000020816681711721685132943093776703e-02
4.600000000000002420286193682841258123517036437988e-01,4.810005908374657135340157765313051640987396240234e-01,-7.720349559701951136503339512273669242858886718750e-01,1.000000000000000020816681711721685132943093776703e-02
4.700000000000002509104035652853781357407569885254e-01,4.543851672314201950442225097503978759050369262695e-01,-7.862299499658268464585830770374741405248641967773e-01,1.000000000000000020816681711721685132943093776703e-02
4.800000000000002597921877622866304591298103332520e-01,4.274298657469183804202828014240367338061332702637e-01,-7.994747984233619986227381559729110449552536010742e-01,1.000000000000000020816681711721685132943093776703e-02
4.900000000000002686739719592878827825188636779785e-01,4.001666367012451375195780656213173642754554748535e-01,-8.117679265401482879838113149162381887435913085938e-01,1.000000000000000020816681711721685132943093776703e-02
5.000000000000002220446049250313080847263336181641e-01,3.726271496714602116107073470629984512925148010254e-01,-8.231090256301168972541404400544706732034683227539e-01,1.000000000000000020816681711721685132943093776703e-02
