time,u0,u1,tau
0.000000000000000000000000000000000000000000000000e+00,-2.999999999999999333866185224906075745820999145508e-01,4.000000000000001332267629550187848508358001708984e-01,1.000000000000000020816681711721685132943093776703e-02
1.000000000000000020816681711721685132943093776703e-02,-2.958411388658568896836698058905312791466712951660e-01,4.028674805931805602554618417343590408563613891602e-01,1.000000000000000020816681711721685132943093776703e-02
2.000000000000000041633363423443370265886187553406e-02,-2.916540310811900904575111326266778632998466491699e-01,4.056940136176406808132810510869603604078292846680e-01,1.000000000000000020816681711721685132943093776703e-02
2.999999999999999888977697537484345957636833190918e-02,-2.874390889587608577393496034346753731369972229004e-01,4.084794229194265713367428816127358004450798034668e-01,1.000000000000000020816681711721685132943093776703e-02
4.000000000000000083266726846886740531772375106812e-02,-2.831967239598907060127430668217130005359649658203e-01,4.112235372886157147576113857212476432323455810547e-01,1.000000000000000020816681711721685132943093776703e-02
5.000000000000000277555756156289135105907917022705e-02,-2.789273466074167484585188958590151742100715637207e-01,4.139261903595651825860102235310478135943412780762e-01,1.000000000000000020816681711721685132943093776703e-02
6.000000000000000471844785465691529680043458938599e-02,-2.746313664020024747358661443286109715700149536133e-01,4.165872205082936097220169813226675614714622497559e-01,1.000000000000000020816681711721685132943093776703e-02
7.000000000000000666133814775093924254179000854492e-02,-2.703091917418878886714139753166818991303443908691e-01,4.192064707471009343819901005190331488847732543945e-01,1.000000000000000020816681711721685132943093776703e-02
8.000000000000000166533453693773481063544750213623e-02,-2.659612298461603852040013862279010936617851257324e-01,4.217837886165339278399244449246907606720924377441e-01,1.000000000000000020816681711721685132943093776703e-02
8.999999999999999666933092612453037872910499572754e-02,-2.615878866816250258864329225616529583930969238281e-01,4.243190260748070929963660091743804514408111572266e-01,1.000000000000000020816681711721685132943093776703e-02
9.999999999999999167332731531132594682276248931885e-02,-2.571895668933507073106170537357684224843978881836e-01,4.268120393847917859453389155532931908965110778809e-01,1.000000000000000020816681711721685132943093776703e-02
1.099999999999999866773237044981215149164199829102e-01,-2.527666737389654971757124712894437834620475769043e-01,4.292626889986888016892407904379069805145263671875e-01,1.000000000000000020816681711721685132943093776703e-02
1.199999999999999816813200936849170830100774765015e-01,-2.483196090267723865618876288863248191773891448975e-01,4.316708394405016635531069368880707770586013793945e-01,1.000000000000000020816681711721685132943093776703e-02
1.299999999999999766853164828717126511037349700928e-01,-2.438487730577527934361370398619328625500202178955e-01,4.340363591864306869183565140701830387115478515625e-01,1.000000000000000020816681711721685132943093776703e-02
1.399999999999999855671006798729649744927883148193e-01,-2.393545645715238201489682978717610239982604980469e-01,4.363591205433099418087294907309114933013916015625e-01,1.000000000000000020816681711721685132943093776703e-02
1.499999999999999944488848768742172978818416595459e-01,-2.348373806963106880107972074256394989788532257080e-01,4.386389995252108486845088464178843423724174499512e-01,1.000000000000000020816681711721685132943093776703e-02
1.600000000000000033306690738754696212708950042725e-01,-2.302976169029942454802295515037258155643939971924e-01,4.408758757283389728698352882929611951112747192383e-01,1.000000000000000020816681711721685132943093776703e-02
1.700000000000000122124532708767219446599483489990e-01,-2.257356669632895052046706041437573730945587158203e-01,4.430696322043516377497951452824054285883903503418e-01,1.000000000000000020816681711721685132943093776703e-02
1.800000000000000210942374678779742680490016937256e-01,-2.211519229121084173517175486267660744488239288330e-01,4.452201553322264193646162766526686027646064758301e-01,1.000000000000000020816681711721685132943093776703e-02
1.900000000000000299760216648792265914380550384521e-01,-2.165467750141572833566527833681902848184108734131e-01,4.473273346888118062736339197726920247077941894531e-01,1.000000000000000020816681711721685132943093776703e-02
2.000000000000000388578058618804789148271083831787e-01,-2.119206117348153561863455252023413777351379394531e-01,4.493910629181931404296790333319222554564476013184e-01,1.000000000000000020816681711721685132943093776703e-02
2.100000000000000477395900588817312382161617279053e-01,-2.072738197153388417515174069194472394883632659912e-01,4.514112356000079540052638549241237342357635498047e-01,1.000000000000000020816681711721685132943093776703e-02
2.200000000000000566213742558829835616052150726318e-01,-2.026067837524307135854684247533441521227359771729e-01,4.533877511168473706248960297671146690845489501953e-01,1.000000000000000020816681711721685132943093776703e-02
2.300000000000000655031584528842358849942684173584e-01,-1.979198867822136720384662567084887996315956115723e-01,4.553205105208796843463403547502821311354637145996e-01,1.000000000000000020816681711721685132943093776703e-02
2.400000000000000743849426498854882083833217620850e-01,-1.932135098686405538792598690633894875645637512207e-01,4.572094173998351718246624386665644124150276184082e-01,1.000000000000000020816681711721685132943093776703e-02
2.500000000000000555111512312578270211815834045410e-01,-1.884880321963727789480458341131452471017837524414e-01,4.590543777424909710482836544542806223034858703613e-01,1.000000000000000020816681711721685132943093776703e-02
2.600000000000000643929354282590793445706367492676e-01,-1.837438310681545894365029880646034143865108489990e-01,4.608552998037964698596624657511711120605468750000e-01,1.000000000000000020816681711721685132943093776703e-02
2.700000000000000732747196252603316679596900939941e-01,-1.789812819067071736345297949810628779232501983643e-01,4.626120939697807021850906039617257192730903625488e-01,1.000000000000000020816681711721685132943093776703e-02
2.800000000000000821565038222615839913487434387207e-01,-1.742007582611634630698205228327424265444278717041e-01,4.643246726223830278534876470075687393546104431152e-01,1.000000000000000020816681711721685132943093776703e-02
2.900000000000000910382880192628363147377967834473e-01,-1.694026318180613388530986185287474654614925384521e-01,4.659929500043502592632194136967882513999938964844e-01,1.000000000000000020816681711721685132943093776703e-02
3.000000000000000999200722162640886381268501281738e-01,-1.645872724169090695056638651294633746147155761719e-01,4.676168420843432871336631251324433833360671997070e-01,1.000000000000000020816681711721685132943093776703e-02
3.100000000000001088018564132653409615159034729004e-01,-1.597550480703340269883483415469527244567871093750e-01,4.691962664223969792232082909322343766689300537109e-01,1.000000000000000020816681711721685132943093776703e-02
3.200000000000001176836406102665932849049568176270e-01,-1.549063249888218696259656326219555921852588653564e-01,4.707311420358772369176847405469743534922599792480e-01,1.000000000000000020816681711721685132943093776703e-02
3.300000000000001265654248072678456082940101623535e-01,-1.500414676100501609745663245121249929070472717285e-01,4.722213892660802603273850763798691332340240478516e-01,1.000000000000000020816681711721685132943093776703e-02
3.400000000000001354472090042690979316830635070801e-01,-1.451608386328171462764657917432487010955810546875e-01,4.736669296456185174193365128303412348031997680664e-01,1.000000000000000020816681711721685132943093776703e-02
3.500000000000001443289932012703502550721168518066e-01,-1.402647990555624946118484785984037443995475769043e-01,4.750676857667380792449307591596152633428573608398e-01,1.000000000000000020816681711721685132943093776703e-02
3.600000000000001532107773982716025784611701965332e-01,-1.353537082194741780760693927732063457369804382324e-01,4.764235811507132045683476917474763467907905578613e-01,1.000000000000000020816681711721685132943093776703e-02
3.700000000000001620925615952728549018502235412598e-01,-1.304279238561713849531287223726394586265087127686e-01,4.777345401184625028889740860904566943645477294922e-01,1.000000000000000020816681711721685132943093776703e-02
3.800000000000001709743457922741072252392768859863e-01,-1.254878021399505050315070775468484498560428619385e-01,4.790004876625326701855556166265159845352172851562e-01,1.000000000000000020816681711721685132943093776703e-02
3.900000000000001798561299892753595486283302307129e-01,-1.205336977445776031059310184900823514908552169800e-01,4.802213493205942373975858572521246969699859619141e-01,1.000000000000000020816681711721685132943093776703e-02
4.000000000000001887379141862766118720173835754395e-01,-1.155659639046073827728378091705963015556335449219e-01,4.813970510505947153490069467807188630104064941406e-01,1.000000000000000020816681711721685132943093776703e-02
4.100000000000001976196983832778641954064369201660e-01,-1.105849524812050205246904965861176606267690658569e-01,4.825275191077136871520281147240893915295600891113e-01,1.000000000000000020816681711721685132943093776703e-02
4.200000000000002065014825802791165187954902648926e-01,-1.055910140324440860126742336433380842208862304688e-01,4.836126799232648432180781128408852964639663696289e-01,1.000000000000000020816681711721685132943093776703e-02
4.300000000000002153832667772803688421845436096191e-01,-1.005844978880499895890210382276563905179500579834e-01,4.846524599856886772464292789663886651396751403809e-01,1.000000000000000020816681711721685132943093776703e-02
4.400000000000002242650509742816211655735969543457e-01,-9.556575222855519247122657588988658972084522247314e-02,4.856467857237804497394506597629515454173088073730e-01,1.000000000000000020816681711721685132943093776703e-02
4.500000000000002331468351712828734889626502990723e-01,-9.053512416882862623435102022995124571025371551514e-02,4.865955833922964712812131438113283365964889526367e-01,1.000000000000000020816681711721685132943093776703e-02
4.600000000000002420286193682841258123517036437988e-01,-8.549295984593847930188559303132933564484119415283e-02,4.874987789600822019053794065257534384727478027344e-01,1.000000000000000020816681711721685132943093776703e-02
4.700000000000002509104035652853781357407569885254e-01,-8.043960451130385824747293099790113046765327453613e-02,4.883562980008650522556479245395166799426078796387e-01,1.000000000000000020816681711721685132943093776703e-02
4.800000000000002597921877622866304591298103332520e-01,-7.537540262708734839502966451618704013526439666748e-02,4.891680655868536620189956920512486249208450317383e-01,1.000000000000000020816681711721685132943093776703e-02
4.900000000000002686739719592878827825188636779785e-01,-7.030069796677679283547490740602370351552963256836e-02,4.899340061852858196900228904269170016050338745117e-01,1.000000000000000020816681711721685132943093776703e-02
5.000000000000002220446049250313080847263336181641e-01,-6.521583371990113953131640300853177905082702636719e-02,4.906540435580661885239805997116491198539733886719e-01,1.000000000000000020816681711721685132943093776703e-02
