time,u0,u1,tau
0.000000000000000000000000000000000000000000000000e+00,9.000000000000001332267629550187848508358001708984e-01,-5.999999999999999777955395074968691915273666381836e-01,1.000000000000000020816681711721685132943093776703e-02
1.000000000000000020816681711721685132943093776703e-02,8.672182688782705817231999390060082077980041503906e-01,-6.383809033979745972686714594601653516292572021484e-01,1.000000000000000020816681711721685132943093776703e-02
2.000000000000000041633363423443370265886187553406e-02,8.332530744105729469950460952532012015581130981445e-01,-6.747093359625976338733721604512538760900497436523e-01,1.000000000000000020816681711721685132943093776703e-02
2.999999999999999888977697537484345957636833190918e-02,7.982012584962037138325285923201590776443481445312e-01,-7.089839502945776139597455767216160893440246582031e-01,1.000000000000000020816681711721685132943093776703e-02
4.000000000000000083266726846886740531772375106812e-02,7.621580568345517336936723040707875043153762817383e-01,-7.412066392426274186178147829195950180292129516602e-01,1.000000000000000020816681711721685132943093776703e-02
5.000000000000000277555756156289135105907917022705e-02,7.252171203792885378902610682416707277297973632812e-01,-7.713827532171695366969288443215191364288330078125e-01,1.000000000000000020816681711721685132943093776703e-02
6.000000000000000471844785465691529680043458938599e-02,6.874704615117532835455449458095245063304901123047e-01,-7.995212447102183483949033870885614305734634399414e-01,1.000000000000000020816681711721685132943093776703e-02
7.000000000000000666133814775093924254179000854492e-02,6.490083402605155704634398716734722256660461425781e-01,-8.256347362835548819859354807704221457242965698242e-01,1.000000000000000020816681711721685132943093776703e-02
8.000000000000000166533453693773481063544750213623e-02,6.099191064721716237784221448237076401710510253906e-01,-8.497395116399988346245208958862349390983581542969e-01,1.000000000000000020816681711721685132943093776703e-02
8.999999999999999666933092612453037872910499572754e-02,5.702890137566198891505564461112953722476959228516e-01,-8.718554325934879667414634241140447556972503662109e-01,1.000000000000000020816681711721685132943093776703e-02
9.999999999999999167332731531132594682276248931885e-02,5.302020203085757721339632553281262516975402832031e-01,-8.920057875959794824183290984365157783031463623047e-01,1.000000000000000020816681711721685132943093776703e-02
1.099999999999999866773237044981215149164199829102e-01,4.897395904185978254830047262657899409532546997070e-01,-9.102170798118177641455872617370914667844772338867e-01,1.000000000000000020816681711721685132943093776703e-02
1.199999999999999816813200936849170830100774765015e-01,4.489805087429633023710096040304051712155342102051e-01,-9.265187644631398544703415609546937048435211181641e-01,1.000000000000000020816681711721685132943093776703e-02
1.299999999999999766853164828717126511037349700928e-01,4.080007173370376327703468177787726745009422302246e-01,-9.409429462723229997678231484314892441034317016602e-01,1.000000000000000020816681711721685132943093776703e-02
1.399999999999999855671006798729649744927883148193e-01,3.668731832133924064542895848717307671904563903809e-01,-9.535240483202745975788161558739375323057174682617e-01,1.000000000000000020816681711721685132943093776703e-02
1.499999999999999944488848768742172978818416595459e-01,3.256678018994836332211662011104635894298553466797e-01,-9.642984635835081252963618680951185524463653564453e-01,1.000000000000000020816681711721685132943093776703e-02
1.600000000000000033306690738754696212708950042725e-01,2.844513402587650063857438453851500526070594787598e-01,-9.733041998963496421737318087252788245677947998047e-01,1.000000000000000020816681711721685132943093776703e-02
1.700000000000000122124532708767219446599483489990e-01,2.432874197983740660600204819274949841201305389404e-01,-9.805805282091011321199403028003871440887451171875e-01,1.000000000000000020816681711721685132943093776703e-02
1.800000000000000210942374678779742680490016937256e-01,2.022365398837813466048629607030306942760944366455e-01,-9.861676428829468932235613465309143066406250000000e-01,1.000000000000000020816681711721685132943093776703e-02
1.900000000000000299760216648792265914380550384521e-01,1.613561387571671446039545116946101188659667968750e-01,-9.901063414759810887844082571973558515310287475586e-01,1.000000000000000020816681711721685132943093776703e-02
2.000000000000000388578058618804789148271083831787e-01,1.207006890289398226556727422575931996107101440430e-01,-9.924377301178441967977050808258354663848876953125e-01,1.000000000000000020816681711721685132943093776703e-02
2.100000000000000477395900588817312382161617279053e-01,8.032182337815696460125991507084108889102935791016e-02,-9.932029592134116180446312682761345058679580688477e-01,1.000000000000000020816681711721685132943093776703e-02
2.200000000000000566213742558829835616052150726318e-01,4.026848554027020327117369902225618716329336166382e-02,-9.924429929124265470363752683624625205993652343750e-01,1.000000000000000020816681711721685132943093776703e-02
2.300000000000000655031584528842358849942684173584e-01,5.871012523533530869102037286211270838975906372070e-04,-9.901984145695428285449679606244899332523345947266e-01,1.000000000000000020816681711721685132943093776703e-02
2.400000000000000743849426498854882083833217620850e-01,-3.867823636580768748016723179716791491955518722534e-02,-9.865092693212818009129705387749709188938140869141e-01,1.000000000000000020816681711721685132943093776703e-02
2.500000000000000555111512312578270211815834045410e-01,-7.748557252593438193777330980083206668496131896973e-02,-9.814149439343563541271464600868057459592819213867e-01,1.000000000000000020816681711721685132943093776703e-02
2.600000000000000643929354282590793445706367492676e-01,-1.157948929723322251117423320465604774653911590576e-01,-9.749540832358495334730719150684308260679244995117e-01,1.000000000000000020816681711721685132943093776703e-02
2.700000000000000732747196252603316679596900939941e-01,-1.535679278025041116784166206343797966837882995605e-01,-9.671645417153205137594795814948156476020812988281e-01,1.000000000000000020816681711721685132943093776703e-02
2.800000000000000821565038222615839913487434387207e-01,-1.907679616875274652976202105492120608687400817871e-01,-9.580833682831819686498420196585357189178466796875e-01,1.000000000000000020816681711721685132943093776703e-02
2.900000000000000910382880192628363147377967834473e-01,-2.273596548473385547950442742148879915475845336914e-01,-9.477468216674511669594949125894345343112945556641e-01,1.000000000000000020816681711721685132943093776703e-02
3.000000000000000999200722162640886381268501281738e-01,-2.633088786547059245712887332047102972865104675293e-01,-9.361904135203960031219594384310767054557800292969e-01,1.000000000000000020816681711721685132943093776703e-02
3.100000000000001088018564132653409615159034729004e-01,-2.985825692163199263085004986351123079657554626465e-01,-9.234489759764936689379055678728036582469940185547e-01,1.000000000000000020816681711721685132943093776703e-02
3.200000000000001176836406102665932849049568176270e-01,-3.331486017191130910575225243519525974988937377930e-01,-9.095567501439150159825430819182656705379486083984e-01,1.000000000000000020816681711721685132943093776703e-02
3.300000000000001265654248072678456082940101623535e-01,-3.669756877414382389979152776504633948206901550293e-01,-8.945474918160951638412825559498742222785949707031e-01,1.000000000000000020816681711721685132943093776703e-02
3.400000000000001354472090042690979316830635070801e-01,-4.000332971176772667298848773498320952057838439941e-01,-8.784545905530233289582042743859346956014633178711e-01,1.000000000000000020816681711721685132943093776703e-02
3.500000000000001443289932012703502550721168518066e-01,-4.322916053167211725138940892065875232219696044922e-01,-8.613111982014327594470159965567290782928466796875e-01,1.000000000000000020816681711721685132943093776703e-02
3.600000000000001532107773982716025784611701965332e-01,-4.637214666558740483459644110553199425339698791504e-01,-8.431503628991818821702963759889826178550720214844e-01,1.000000000000000020816681711721685132943093776703e-02
3.700000000000001620925615952728549018502235412598e-01,-4.942944130300253036125468497630208730697631835938e-01,-8.240051646437476229323237930657342076301574707031e-01,1.000000000000000020816681711721685132943093776703e-02
3.800000000000001709743457922741072252392768859863e-01,-5.239826772014720690506806022312957793474197387695e-01,-8.039088486011043421797239716397598385810852050781e-01,1.000000000000000020816681711721685132943093776703e-02
3.900000000000001798561299892753595486283302307129e-01,-5.527592390809749067770439978630747646093368530273e-01,-7.828949524929531555983430735068395733833312988281e-01,1.000000000000000020816681711721685132943093776703e-02
4.000000000000001887379141862766118720173835754395e-01,-5.805978928501439595422084494202863425016403198242e-01,-7.609974246304447298427930945763364434242248535156e-01,1.000000000000000020816681711721685132943093776703e-02
4.100000000000001976196983832778641954064369201660e-01,-6.074733322454667350243084911198820918798446655273e-01,-7.382507294629601091173753957264125347137451171875e-01,1.000000000000000020816681711721685132943093776703e-02
4.200000000000002065014825802791165187954902648926e-01,-6.333612508625494630365437842556275427341461181641e-01,-7.146899378806821356846512571792118251323699951172e-01,1.000000000000000020816681711721685132943093776703e-02
4.300000000000002153832667772803688421845436096191e-01,-6.582384539626319197580528452817816287279129028320e-01,-6.903507999461168109789355185057502239942550659180e-01,1.000000000000000020816681711721685132943093776703e-02
4.400000000000002242650509742816211655735969543457e-01,-6.820829779879374887840981500630732625722885131836e-01,-6.652697982254517361511148010322358459234237670898e-01,1.000000000000000020816681711721685132943093776703e-02
4.500000000000002331468351712828734889626502990723e-01,-7.048742138309723737066292414965573698282241821289e-01,-6.394841804350088754205216901027597486972808837891e-01,1.000000000000000020816681711721685132943093776703e-02
4.600000000000002420286193682841258123517036437988e-01,-7.265930298645169038707081199390813708305358886719e-01,-6.130319706968411219705217263253871351480484008789e-01,1.000000000000000020816681711721685132943093776703e-02
4.700000000000002509104035652853781357407569885254e-01,-7.472218908277465931888627892476506531238555908203e-01,-5.859519592934271381423627644835505634546279907227e-01,1.000000000000000020816681711721685132943093776703e-02
4.800000000000002597921877622866304591298103332520e-01,-7.667449688779102157099032410769723355770111083984e-01,-5.582836714048605708526906710176263004541397094727e-01,1.000000000000000020816681711721685132943093776703e-02
4.900000000000002686739719592878827825188636779785e-01,-7.851482434484783334838198243232909590005874633789e-01,-5.300673158821271879759251532959751784801483154297e-01,1.000000000000000020816681711721685132943093776703e-02
5.000000000000002220446049250313080847263336181641e-01,-8.024195869900648814265764485753607004880905151367e-01,-5.013437156363204083575624281365890055894851684570e-01,1.000000000000000020816681711721685132943093776703e-02
