time,u0,u1,tau
0.000000000000000000000000000000000000000000000000e+00,6.000000000000000888178419700125232338905334472656e-01,3.000000000000000444089209850062616169452667236328e-01,1.000000000000000020816681711721685132943093776703e-02
1.000000000000000020816681711721685132943093776703e-02,6.053454477791130328157009898859541863203048706055e-01,2.894114692125294707736316013324540108442306518555e-01,1.000000000000000020816681711721685132943093776703e-02
2.000000000000000041633363423443370265886187553406e-02,6.104953175724475711305672120943199843168258666992e-01,2.787273206478255160867263384716352447867393493652e-01,1.000000000000000020816681711721685132943093776703e-02
2.999999999999999888977697537484345957636833190918e-02,6.154475799400590529941723616502713412046432495117e-01,2.679509771680547158823060271970462054014205932617e-01,1.000000000000000020816681711721685132943093776703e-02
4.000000000000000083266726846886740531772375106812e-02,6.202002824053904905809986303211189806461334228516e-01,2.570859228014457098510092691867612302303314208984e-01,1.000000000000000020816681711721685132943093776703e-02
5.000000000000000277555756156289135105907917022705e-02,6.247515521619899647731699587893672287464141845703e-01,2.461357009207567614339495776221156120300292968750e-01,1.000000000000000020816681711721685132943093776703e-02
6.000000000000000471844785465691529680043458938599e-02,6.290995986511628279558294707385357469320297241211e-01,2.351039122536287828690859669222845695912837982178e-01,1.000000000000000020816681711721685132943093776703e-02
7.000000000000000666133814775093924254179000854492e-02,6.332427159996553145404618589964229613542556762695e-01,2.239942127323254761339654805851751007139682769775e-01,1.000000000000000020816681711721685132943093776703e-02
8.000000000000000166533453693773481063544750213623e-02,6.371792853073471318836595855827908962965011596680e-01,2.128103111911994749227972079097526147961616516113e-01,1.000000000000000020816681711721685132943093776703e-02
8.999999999999999666933092612453037872910499572754e-02,6.409077767758800669994911913818214088678359985352e-01,2.015559669209923410182483394237351603806018829346e-01,1.000000000000000020816681711721685132943093776703e-02
9.999999999999999167332731531132594682276248931885e-02,6.444267516701581710591995033610146492719650268555e-01,1.902349870897735995001198716636281460523605346680e-01,1.000000000000000020816681711721685132943093776703e-02
1.099999999999999866773237044981215149164199829102e-01,6.477348641057110167906785136437974870204925537109e-01,1.788512240409425857468050935494829900562763214111e-01,1.000000000000000020816681711721685132943093776703e-02
1.199999999999999816813200936849170830100774765015e-01,6.508308626560072029931802717328537255525588989258e-01,1.674085724792514218162153838420636020600795745850e-01,1.000000000000000020816681711721685132943093776703e-02
1.299999999999999766853164828717126511037349700928e-01,6.537135917749303803958582648192532360553741455078e-01,1.559109665562548874273574028848088346421718597412e-01,1.000000000000000020816681711721685132943093776703e-02
1.399999999999999855671006798729649744927883148193e-01,6.563819930307707162242536469420883804559707641602e-01,1.443623768669494156213772839691955596208572387695e-01,1.000000000000000020816681711721685132943093776703e-02
1.499999999999999944488848768742172978818416595459e-01,6.588351061492342397585275648452807217836380004883e-01,1.327668073696272599271139824850251898169517517090e-01,1.000000000000000020816681711721685132943093776703e-02
1.600000000000000033306690738754696212708950042725e-01,6.610720698641193715516806150844786316156387329102e-01,1.211282922411425350128766353918763343244791030884e-01,1.000000000000000020816681711721685132943093776703e-02
1.700000000000000122124532708767219446599483489990e-01,6.630921225754390357920442511385772377252578735352e-01,1.094508926798616194053792582963069435209035873413e-01,1.000000000000000020816681711721685132943093776703e-02
1.800000000000000210942374678779742680490016937256e-01,6.648946028158772003635590408521238714456558227539e-01,9.773869366855514329017751151695847511291503906250e-02,1.000000000000000020816681711721685132943093776703e-02
1.900000000000000299760216648792265914380550384521e-01,6.664789495275383890415810128615703433752059936523e-01,8.599580070938193931961990301715559326112270355225e-02,1.000000000000000020816681711721685132943093776703e-02
2.000000000000000388578058618804789148271083831787e-01,6.678447021519826609647907389444299042224884033203e-01,7.422633654292157268095309063937747851014137268066e-02,1.000000000000000020816681711721685132943093776703e-02
2.100000000000000477395900588817312382161617279053e-01,6.689915005375138834509129992511589080095291137695e-01,6.243443786293464969894273508543847128748893737793e-02,1.000000000000000020816681711721685132943093776703e-02
2.200000000000000566213742558829835616052150726318e-01,6.699190846686111644459060698864050209522247314453e-01,5.062425203817433327913022367283701896667480468750e-02,1.000000000000000020816681711721685132943093776703e-02
2.300000000000000655031584528842358849942684173584e-01,6.706272942232441858223523922788444906473159790039e-01,3.879993385214323964316207593583385460078716278076e-02,1.000000000000000020816681711721685132943093776703e-02
2.400000000000000743849426498854882083833217620850e-01,6.711160679645947757521184939832892268896102905273e-01,2.696564227119404785759648746079619741067290306091e-02,1.000000000000000020816681711721685132943093776703e-02
2.500000000000000555111512312578270211815834045410e-01,6.713854429744121610212914674775674939155578613281e-01,1.512553725081637254201716302759450627490878105164e-02,1.000000000000000020816681711721685132943093776703e-02
2.600000000000000643929354282590793445706367492676e-01,6.714355537358497327815598509914707392454147338867e-01,3.283776589343524038300259348943654913455247879028e-03,1.000000000000000020816681711721685132943093776703e-02
2.700000000000000732747196252603316679596900939941e-01,6.712666310741708386444770439993590116500854492188e-01,-8.555487162340853074526947352751449216157197952271e-03,1.000000000000000020816681711721685132943093776703e-02
2.800000000000000821565038222615839913487434387207e-01,6.708790009641641960413949163921643048524856567383e-01,-2.038810972720726810702984721501707099378108978271e-02,1.000000000000000020816681711721685132943093776703e-02
2.900000000000000910382880192628363147377967834473e-01,6.702730832134738969685372467210981994867324829102e-01,-3.220995805742724732434467682651302311569452285767e-02,1.000000000000000020816681711721685132943093776703e-02
3.000000000000000999200722162640886381268501281738e-01,6.694493900313276402158635391970165073871612548828e-01,-4.401691321223494268721765365626197308301925659180e-02,1.000000000000000020816681711721685132943093776703e-02
3.100000000000001088018564132653409615159034729004e-01,6.684085244923401170069610088830813765525817871094e-01,-5.580487315263009395760462894031661562621593475342e-02,1.000000000000000020816681711721685132943093776703e-02
3.200000000000001176836406102665932849049568176270e-01,6.671511789051758345436837771558202803134918212891e-01,-6.756975544800829236447015091471257619559764862061e-02,1.000000000000000020816681711721685132943093776703e-02
3.300000000000001265654248072678456082940101623535e-01,6.656781330958833065025714859075378626585006713867e-01,-7.930749989056143367527340615197317674756050109863e-02,1.000000000000000020816681711721685132943093776703e-02
3.400000000000001354472090042690979316830635070801e-01,6.639902526156602480256196940899826586246490478516e-01,-9.101407101403813371121032105293124914169311523438e-02,1.000000000000000020816681711721685132943093776703e-02
3.500000000000001443289932012703502550721168518066e-01,6.620884868826852898138213276979513466358184814453e-01,-1.026854605141844511972948339462163858115673065186e-01,1.000000000000000020816681711721685132943093776703e-02
3.600000000000001532107773982716025784611701965332e-01,6.599738672674569928133792018343228846788406372070e-01,-1.143176895688922806160192635616112966090440750122e-01,1.000000000000000020816681711721685132943093776703e-02
3.700000000000001620925615952728549018502235412598e-01,6.576475051308212638190298093832097947597503662109e-01,-1.259068110567611031846979585679946467280387878418e-01,1.000000000000000020816681711721685132943093776703e-02
3.800000000000001709743457922741072252392768859863e-01,6.551105898235527469353201013291254639625549316406e-01,-1.374489116734224913862760786287253722548484802246e-01,1.000000000000000020816681711721685132943093776703e-02
3.900000000000001798561299892753595486283302307129e-01,6.523643866559867277032935817260295152664184570312e-01,-1.489401139455817368872914130406570620834827423096e-01,1.000000000000000020816681711721685132943093776703e-02
4.000000000000001887379141862766118720173835754395e-01,6.494102348457797546643632813356816768646240234375e-01,-1.603765781432922032934129674686118960380554199219e-01,1.000000000000000020816681711721685132943093776703e-02
4.100000000000001976196983832778641954064369201660e-01,6.462495454514259884959415103367064148187637329102e-01,-1.717545040914933429654354313242947682738304138184e-01,1.000000000000000020816681711721685132943093776703e-02
4.200000000000002065014825802791165187954902648926e-01,6.428837992986639049419750335800927132368087768555e-01,-1.830701328823086948549558883314603008329868316650e-01,1.000000000000000020816681711721685132943093776703e-02
4.300000000000002153832667772803688421845436096191e-01,6.393145449063957208579722646391019225120544433594e-01,-1.943197484900145988184760881267720833420753479004e-01,1.000000000000000020816681711721685132943093776703e-02
4.400000000000002242650509742816211655735969543457e-01,6.355433964182045647461904991359915584325790405273e-01,-2.054996792909513370073426585804554633796215057373e-01,1.000000000000000020816681711721685132943093776703e-02
4.500000000000002331468351712828734889626502990723e-01,6.315720315450055188932765304343774914741516113281e-01,-2.166062994909562500200905788005911745131015777588e-01,1.000000000000000020816681711721685132943093776703e-02
4.600000000000002420286193682841258123517036437988e-01,6.274021895238107715542241749062668532133102416992e-01,-2.276360304631517839091259247652487829327583312988e-01,1.000000000000000020816681711721685132943093776703e-02
4.700000000000002509104035652853781357407569885254e-01,6.230356690970280109098666798672638833522796630859e-01,-2.385853419991217916340531246532918885350227355957e-01,1.000000000000000020816681711721685132943093776703e-02
4.800000000000002597921877622866304591298103332520e-01,6.184743265161588565703709718945901840925216674805e-01,-2.494507534766567669048953348465147428214550018311e-01,1.000000000000000020816681711721685132943093776703e-02
4.900000000000002686739719592878827825188636779785e-01,6.137200735732168954683629635837860405445098876953e-01,-2.602288349473454442950526299682678654789924621582e-01,1.000000000000000020816681711721685132943093776703e-02
5.000000000000002220446049250313080847263336181641e-01,6.087748756626548685133570870675612241029739379883e-01,-2.709162081473375227602673476212657988071441650391e-01,1.000000000000000020816681711721685132943093776703e-02
