time,u0,u1,tau
0.000000000000000000000000000000000000000000000000e+00,-9.000000000000000222044604925031308084726333618164e-01,-9.000000000000000222044604925031308084726333618164e-01,1.000000000000000020816681711721685132943093776703e-02
1.000000000000000020816681711721685132943093776703e-02,-9.433426495213623752533749211579561233520507812500e-01,-8.310542718213734803001102591224480420351028442383e-01,1.000000000000000020816681711721685132943093776703e-02
2.000000000000000041633363423443370265886187553406e-02,-9.812713737933619340125801500107627362012863159180e-01,-7.625646166610128284801817244442645460367202758789e-01,1.000000000000000020816681711721685132943093776703e-02
2.999999999999999888977697537484345957636833190918e-02,-1.014172813504291337238782944041304290294647216797e+00,-6.946008652115488457567948898940812796354293823242e-01,1.000000000000000020816681711721685132943093776703e-02
4.000000000000000083266726846886740531772375106812e-02,-1.042385233960982704459752312686759978532791137695e+00,-6.272425219123665129927758243866264820098876953125e-01,1.000000000000000020816681711721685132943093776703e-02
5.000000000000000277555756156289135105907917022705e-02,-1.066209411190182754225475036946590989828109741211e+00,-5.605730604427823227098315328476019203662872314453e-01,1.000000000000000020816681711721685132943093776703e-02
6.000000000000000471844785465691529680043458938599e-02,-1.085916206581274634501710352196823805570602416992e+00,-4.946762237421190588904096330225002020597457885742e-01,1.000000000000000020816681711721685132943093776703e-02
7.000000000000000666133814775093924254179000854492e-02,-1.101751952919902688421416314668022096157073974609e+00,-4.296336613991518782462719627801561728119850158691e-01,1.000000000000000020816681711721685132943093776703e-02
8.000000000000000166533453693773481063544750213623e-02,-1.113942371155484778455502237193286418914794921875e+00,-3.655234806670030200947962839563842862844467163086e-01,1.000000000000000020816681711721685132943093776703e-02
8.999999999999999666933092612453037872910499572754e-02,-1.122695489453358286269235577492509037256240844727e+00,-3.024194306591729830557824243442155420780181884766e-01,1.000000000000000020816681711721685132943093776703e-02
9.999999999999999167332731531132594682276248931885e-02,-1.128203879372851936579991161124780774116516113281e+00,-2.403905271850353131402044937203754670917987823486e-01,1.000000000000000020816681711721685132943093776703e-02
1.099999999999999866773237044981215149164199829102e-01,-1.130646422391129446438640115957241505384445190430e+00,-1.795009817769435689349677431891905143857002258301e-01,1.000000000000000020816681711721685132943093776703e-02
1.199999999999999816813200936849170830100774765015e-01,-1.130189752632236865892423338664229959249496459961e+00,-1.198103356252810253179674759849149268120527267456e-01,1.000000000000000020816681711721685132943093776703e-02
1.299999999999999766853164828717126511037349700928e-01,-1.126989476113133381574016311788000166416168212891e+00,-6.137372464744521305402003008566680364310741424561e-02,1.000000000000000020816681711721685132943093776703e-02
1.399999999999999855671006798729649744927883148193e-01,-1.121191235441545197559776170237455517053604125977e+00,-4.242220026421106293668117359629832208156585693359e-03,1.000000000000000020816681711721685132943093776703e-02
1.499999999999999944488848768742172978818416595459e-01,-1.112931666901260108204496646067127585411071777344e+00,5.153679815859082968820814585342304781079292297363e-02,1.000000000000000020816681711721685132943093776703e-02
1.600000000000000033306690738754696212708950042725e-01,-1.102339281182381558465976922889240086078643798828e+00,1.059192665081065548582373025965353008359670639038e-01,1.000000000000000020816681711721685132943093776703e-02
1.700000000000000122124532708767219446599483489990e-01,-1.089535287683091047128414174949284642934799194336e+00,1.588640874702265948226198588599800132215023040771e-01,1.000000000000000020816681711721685132943093776703e-02
1.800000000000000210942374678779742680490016937256e-01,-1.074634374038893724900844972580671310424804687500e+00,2.103328200517129153990225631787325255572795867920e-01,1.000000000000000020816681711721685132943093776703e-02
1.900000000000000299760216648792265914380550384521e-01,-1.057745446480870432637289013655390590429306030273e+00,2.602894246135367684047423608717508614063262939453e-01,1.000000000000000020816681711721685132943093776703e-02
2.000000000000000388578058618804789148271083831787e-01,-1.038972332229485706633909103402402251958847045898e+00,3.087000696094551743797751441888976842164993286133e-01,1.000000000000000020816681711721685132943093776703e-02
2.100000000000000477395900588817312382161617279053e-01,-1.018414442026098987170712462102528661489486694336e+00,3.555330039871821279362507084442768245935440063477e-01,1.000000000000000020816681711721685132943093776703e-02
2.200000000000000566213742558829835616052150726318e-01,-9.961673888434253720802757925412151962518692016602e-01,4.007584952765659846996015858167083933949470520020e-01,1.000000000000000020816681711721685132943093776703e-02
2.300000000000000655031584528842358849942684173584e-01,-9.723235576288739023809171158063691109418869018555e-01,4.443488301006000007475904567399993538856506347656e-01,1.000000000000000020816681711721685132943093776703e-02
2.400000000000000743849426498854882083833217620850e-01,-9.469726204970838612240413567633368074893951416016e-01,4.862783709714223467912574960791971534490585327148e-01,1.000000000000000020816681711721685132943093776703e-02
2.500000000000000555111512312578270211815834045410e-01,-9.202019920000863439923932673991657793521881103516e-01,5.265236608134715723394947417546063661575317382812e-01,1.000000000000000020816681711721685132943093776703e-02
2.600000000000000643929354282590793445706367492676e-01,-8.920972198734039571021980918885674327611923217773e-01,5.650635647442415754326816568209324032068252563477e-01,1.000000000000000020816681711721685132943093776703e-02
2.700000000000000732747196252603316679596900939941e-01,-8.627423078895513075536882752203382551670074462891e-01,6.018794372959233029973802331369370222091674804688e-01,1.000000000000000020816681711721685132943093776703e-02
2.800000000000000821565038222615839913487434387207e-01,-8.322199690434686214501880385796539485454559326172e-01,6.369553025234153675881998424301855266094207763672e-01,1.000000000000000020816681711721685132943093776703e-02
2.900000000000000910382880192628363147377967834473e-01,-8.006118091332345976240958407288417220115661621094e-01,6.702780343377299221430121178855188190937042236328e-01,1.000000000000000020816681711721685132943093776703e-02
3.000000000000000999200722162640886381268501281738e-01,-7.679984427607081665101418366248253732919692993164e-01,7.018375249196061593792705934902187436819076538086e-01,1.000000000000000020816681711721685132943093776703e-02
3.100000000000001088018564132653409615159034729004e-01,-7.344595457332393495519795578729826956987380981445e-01,7.316268301616707381285209521593060344457626342773e-01,1.000000000000000020816681711721685132943093776703e-02
3.200000000000001176836406102665932849049568176270e-01,-7.000738496751831574371749411511700600385665893555e-01,7.596422826791074944807746760488953441381454467773e-01,1.000000000000000020816681711721685132943093776703e-02
3.300000000000001265654248072678456082940101623535e-01,-6.649190862442583282998498361848760396242141723633e-01,7.858835649084940921937914026784710586071014404297e-01,1.000000000000000020816681711721685132943093776703e-02
3.400000000000001354472090042690979316830635070801e-01,-6.290718896002893689711754632298834621906280517578e-01,8.103537370504696468742622528225183486938476562500e-01,1.000000000000000020816681711721685132943093776703e-02
3.500000000000001443289932012703502550721168518066e-01,-5.926076666266630876833687580074183642864227294922e-01,8.330592169618653564100441144546493887901306152344e-01,1.000000000000000020816681711721685132943093776703e-02
3.600000000000001532107773982716025784611701965332e-01,-5.556004448228425429689991688064765185117721557617e-01,8.540097114261112620781091209209989756345748901367e-01,1.000000000000000020816681711721685132943093776703e-02
3.700000000000001620925615952728549018502235412598e-01,-5.181227077664293245717885838530492037534713745117e-01,8.732181003994347046059942840656731277704238891602e-01,1.000000000000000020816681711721685132943093776703e-02
3.800000000000001709743457922741072252392768859863e-01,-4.802452276124297703141508009139215573668479919434e-01,8.907002777392649672805191585212014615535736083984e-01,1.000000000000000020816681711721685132943093776703e-02
3.900000000000001798561299892753595486283302307129e-01,-4.420369033076517184532860937906662002205848693848e-01,9.064749534936407115992551553063094615936279296875e-01,1.000000000000000020816681711721685132943093776703e-02
4.000000000000001887379141862766118720173835754395e-01,-4.035646121200989755450905249745119363069534301758e-01,9.205634240208335761224134330404922366142272949219e-01,1.000000000000000020816681711721685132943093776703e-02
4.100000000000001976196983832778641954064369201660e-01,-3.648930807981728419164824117615353316068649291992e-01,9.329893170019769588208191635203547775745391845703e-01,1.000000000000000020816681711721685132943093776703e-02
4.200000000000002065014825802791165187954902648926e-01,-3.260847812668034029215391456091310828924179077148e-01,9.437783188184252214369962530327029526233673095703e-01,1.000000000000000020816681711721685132943093776703e-02
4.300000000000002153832667772803688421845436096191e-01,-2.871998543178986840196387220203178003430366516113e-01,9.529578918236949469644514465471729636192321777344e-01,1.000000000000000020816681711721685132943093776703e-02
4.400000000000002242650509742816211655735969543457e-01,-2.482960633321122934091818024171516299247741699219e-01,9.605569887962451813834263703029137104749679565430e-01,1.000000000000000020816681711721685132943093776703e-02
4.500000000000002331468351712828734889626502990723e-01,-2.094287787364920716548510881693800911307334899902e-01,9.666057713718702038008245835953857749700546264648e-01,1.000000000000000020816681711721685132943093776703e-02
4.600000000000002420286193682841258123517036437988e-01,-1.706509927020996297830635057835024781525135040283e-01,9.711353385838070728652837715344503521919250488281e-01,1.000000000000000020816681711721685132943093776703e-02
4.700000000000002509104035652853781357407569885254e-01,-1.320133625464058879650508515624096617102622985840e-01,9.741774708435337881695659234537743031978607177734e-01,1.000000000000000020816681711721685132943093776703e-02
4.800000000000002597921877622866304591298103332520e-01,-9.356428044270688471062413782419753260910511016846e-02,9.757643938288659279933767720649484544992446899414e-01,1.000000000000000020816681711721685132943093776703e-02
4.900000000000002686739719592878827825188636779785e-01,-5.534996635678079285325381420079793315380811691284e-02,9.759285658537792951250366968451999127864837646484e-01,1.000000000000000020816681711721685132943093776703e-02
5.000000000000002220446049250313080847263336181641e-01,-1.741458062407116175185350925858074333518743515015e-02,9.747024914129355233072260489279869943857192993164e-01,1.000000000000000020816681711721685132943093776703e-02
