time,u0,u1,tau
0.000000000000000000000000000000000000000000000000e+00,9.000000000000001332267629550187848508358001708984e-01,9.000000000000001332267629550187848508358001708984e-01,1.000000000000000020816681711721685132943093776703e-02
1.000000000000000020816681711721685132943093776703e-02,9.433426495213624862756773836736101657152175903320e-01,8.310542718213735913224127216381020843982696533203e-01,1.000000000000000020816681711721685132943093776703e-02
2.000000000000000041633363423443370265886187553406e-02,9.812713737933620450348826125264167785644531250000e-01,7.625646166610129395024841869599185883998870849609e-01,1.000000000000000020816681711721685132943093776703e-02
2.999999999999999888977697537484345957636833190918e-02,1.014172813504291559283387869072612375020980834961e+00,6.946008652115489567790973524097353219985961914062e-01,1.000000000000000020816681711721685132943093776703e-02
4.000000000000000083266726846886740531772375106812e-02,1.042385233960982926504357237718068063259124755859e+00,6.272425219123666240150782869022805243730545043945e-01,1.000000000000000020816681711721685132943093776703e-02
5.000000000000000277555756156289135105907917022705e-02,1.066209411190182976270079961977899074554443359375e+00,5.605730604427824337321339953632559627294540405273e-01,1.000000000000000020816681711721685132943093776703e-02
6.000000000000000471844785465691529680043458938599e-02,1.085916206581274856546315277228131890296936035156e+00,4.946762237421191144015608642803272232413291931152e-01,1.000000000000000020816681711721685132943093776703e-02
7.000000000000000666133814775093924254179000854492e-02,1.101751952919902910466021239699330180883407592773e+00,4.296336613991519337574231940379831939935684204102e-01,1.000000000000000020816681711721685132943093776703e-02
8.000000000000000166533453693773481063544750213623e-02,1.113942371155485000500107162224594503641128540039e+00,3.655234806670030200947962839563842862844467163086e-01,1.000000000000000020816681711721685132943093776703e-02
8.999999999999999666933092612453037872910499572754e-02,1.122695489453358508313840502523817121982574462891e+00,3.024194306591729275446311930863885208964347839355e-01,1.000000000000000020816681711721685132943093776703e-02
9.999999999999999167332731531132594682276248931885e-02,1.128203879372852158624596086156088858842849731445e+00,2.403905271850352298734776468336349353194236755371e-01,1.000000000000000020816681711721685132943093776703e-02
1.099999999999999866773237044981215149164199829102e-01,1.130646422391129668483245040988549590110778808594e+00,1.795009817769434579126652806735364720225334167480e-01,1.000000000000000020816681711721685132943093776703e-02
1.199999999999999816813200936849170830100774765015e-01,1.130189752632237087937028263695538043975830078125e+00,1.198103356252808726623015900258906185626983642578e-01,1.000000000000000020816681711721685132943093776703e-02
1.299999999999999766853164828717126511037349700928e-01,1.126989476113133381574016311788000166416168212891e+00,6.137372464744502570388462459050060715526342391968e-02,1.000000000000000020816681711721685132943093776703e-02
1.399999999999999855671006798729649744927883148193e-01,1.121191235441545197559776170237455517053604125977e+00,4.242220026420918943532711864463635720312595367432e-03,1.000000000000000020816681711721685132943093776703e-02
1.499999999999999944488848768742172978818416595459e-01,1.112931666901260108204496646067127585411071777344e+00,-5.153679815859101703834355134858924429863691329956e-02,1.000000000000000020816681711721685132943093776703e-02
1.600000000000000033306690738754696212708950042725e-01,1.102339281182381558465976922889240086078643798828e+00,-1.059192665081067352694788041844731196761131286621e-01,1.000000000000000020816681711721685132943093776703e-02
1.700000000000000122124532708767219446599483489990e-01,1.089535287683091047128414174949284642934799194336e+00,-1.588640874702267891116491682623745873570442199707e-01,1.000000000000000020816681711721685132943093776703e-02
1.800000000000000210942374678779742680490016937256e-01,1.074634374038893724900844972580671310424804687500e+00,-2.103328200517131096880518725811270996928215026855e-01,1.000000000000000020816681711721685132943093776703e-02
1.900000000000000299760216648792265914380550384521e-01,1.057745446480870432637289013655390590429306030273e+00,-2.602894246135369349381960546452319249510765075684e-01,1.000000000000000020816681711721685132943093776703e-02
2.000000000000000388578058618804789148271083831787e-01,1.038972332229485706633909103402402251958847045898e+00,-3.087000696094553409132288379623787477612495422363e-01,1.000000000000000020816681711721685132943093776703e-02
2.100000000000000477395900588817312382161617279053e-01,1.018414442026098987170712462102528661489486694336e+00,-3.555330039871822944697044022177578881382942199707e-01,1.000000000000000020816681711721685132943093776703e-02
2.200000000000000566213742558829835616052150726318e-01,9.961673888434253720802757925412151962518692016602e-01,-4.007584952765661512330552795901894569396972656250e-01,1.000000000000000020816681711721685132943093776703e-02
2.300000000000000655031584528842358849942684173584e-01,9.723235576288739023809171158063691109418869018555e-01,-4.443488301006001672810441505134804174304008483887e-01,1.000000000000000020816681711721685132943093776703e-02
2.400000000000000743849426498854882083833217620850e-01,9.469726204970838612240413567633368074893951416016e-01,-4.862783709714225133247111898526782169938087463379e-01,1.000000000000000020816681711721685132943093776703e-02
2.500000000000000555111512312578270211815834045410e-01,9.202019920000863439923932673991657793521881103516e-01,-5.265236608134716833617972042702604085206985473633e-01,1.000000000000000020816681711721685132943093776703e-02
2.600000000000000643929354282590793445706367492676e-01,8.920972198734039571021980918885674327611923217773e-01,-5.650635647442416864549841193365864455699920654297e-01,1.000000000000000020816681711721685132943093776703e-02
2.700000000000000732747196252603316679596900939941e-01,8.627423078895513075536882752203382551670074462891e-01,-6.018794372959234140196826956525910645723342895508e-01,1.000000000000000020816681711721685132943093776703e-02
2.800000000000000821565038222615839913487434387207e-01,8.322199690434686214501880385796539485454559326172e-01,-6.369553025234154786105023049458395689725875854492e-01,1.000000000000000020816681711721685132943093776703e-02
2.900000000000000910382880192628363147377967834473e-01,8.006118091332345976240958407288417220115661621094e-01,-6.702780343377301441876170429168269038200378417969e-01,1.000000000000000020816681711721685132943093776703e-02
3.000000000000000999200722162640886381268501281738e-01,7.679984427607081665101418366248253732919692993164e-01,-7.018375249196063814238755185215268284082412719727e-01,1.000000000000000020816681711721685132943093776703e-02
3.100000000000001088018564132653409615159034729004e-01,7.344595457332392385296770953573286533355712890625e-01,-7.316268301616709601731258771906141191720962524414e-01,1.000000000000000020816681711721685132943093776703e-02
3.200000000000001176836406102665932849049568176270e-01,7.000738496751830464148724786355160176753997802734e-01,-7.596422826791077165253796010802034288644790649414e-01,1.000000000000000020816681711721685132943093776703e-02
3.300000000000001265654248072678456082940101623535e-01,6.649190862442582172775473736692219972610473632812e-01,-7.858835649084943142383963277097791433334350585938e-01,1.000000000000000020816681711721685132943093776703e-02
3.400000000000001354472090042690979316830635070801e-01,6.290718896002891469265705381985753774642944335938e-01,-8.103537370504698689188671778538264334201812744141e-01,1.000000000000000020816681711721685132943093776703e-02
3.500000000000001443289932012703502550721168518066e-01,5.926076666266628656387638329761102795600891113281e-01,-8.330592169618655784546490394859574735164642333984e-01,1.000000000000000020816681711721685132943093776703e-02
3.600000000000001532107773982716025784611701965332e-01,5.556004448228423209243942437751684337854385375977e-01,-8.540097114261114841227140459523070603609085083008e-01,1.000000000000000020816681711721685132943093776703e-02
3.700000000000001620925615952728549018502235412598e-01,5.181227077664289915048811963060870766639709472656e-01,-8.732181003994349266505992090969812124967575073242e-01,1.000000000000000020816681711721685132943093776703e-02
3.800000000000001709743457922741072252392768859863e-01,4.802452276124294372472434133669594302773475646973e-01,-8.907002777392650783028216210368555039167404174805e-01,1.000000000000000020816681711721685132943093776703e-02
3.900000000000001798561299892753595486283302307129e-01,4.420369033076513853863787062437040731310844421387e-01,-9.064749534936408226215576178219635039567947387695e-01,1.000000000000000020816681711721685132943093776703e-02
4.000000000000001887379141862766118720173835754395e-01,4.035646121200986424781831374275498092174530029297e-01,-9.205634240208336871447158955561462789773941040039e-01,1.000000000000000020816681711721685132943093776703e-02
4.100000000000001976196983832778641954064369201660e-01,3.648930807981725088495750242145732045173645019531e-01,-9.329893170019770698431216260360088199377059936523e-01,1.000000000000000020816681711721685132943093776703e-02
4.200000000000002065014825802791165187954902648926e-01,3.260847812668030698546317580621689558029174804688e-01,-9.437783188184253324592987155483569949865341186523e-01,1.000000000000000020816681711721685132943093776703e-02
4.300000000000002153832667772803688421845436096191e-01,2.871998543178983509527313344733556732535362243652e-01,-9.529578918236950579867539090628270059823989868164e-01,1.000000000000000020816681711721685132943093776703e-02
4.400000000000002242650509742816211655735969543457e-01,2.482960633321119603422744148701895028352737426758e-01,-9.605569887962452924057288328185677528381347656250e-01,1.000000000000000020816681711721685132943093776703e-02
4.500000000000002331468351712828734889626502990723e-01,2.094287787364917385879437006224179640412330627441e-01,-9.666057713718703148231270461110398173332214355469e-01,1.000000000000000020816681711721685132943093776703e-02
4.600000000000002420286193682841258123517036437988e-01,1.706509927020992967161561182365403510630130767822e-01,-9.711353385838071838875862340501043945550918579102e-01,1.000000000000000020816681711721685132943093776703e-02
4.700000000000002509104035652853781357407569885254e-01,1.320133625464055548981434640154475346207618713379e-01,-9.741774708435338991918683859694283455610275268555e-01,1.000000000000000020816681711721685132943093776703e-02
4.800000000000002597921877622866304591298103332520e-01,9.356428044270653776592894246277865022420883178711e-02,-9.757643938288660390156792345806024968624114990234e-01,1.000000000000000020816681711721685132943093776703e-02
4.900000000000002686739719592878827825188636779785e-01,5.534996635678043203077081102492229547351598739624e-02,-9.759285658537794061473391593608539551496505737305e-01,1.000000000000000020816681711721685132943093776703e-02
5.000000000000002220446049250313080847263336181641e-01,1.741458062407078705158269826824835035949945449829e-02,-9.747024914129356343295285114436410367488861083984e-01,1.000000000000000020816681711721685132943093776703e-02
