time,u0,u1,tau
0.000000000000000000000000000000000000000000000000e+00,-3.999999999999999111821580299874767661094665527344e-01,4.000000000000001332267629550187848508358001708984e-01,1.000000000000000020816681711721685132943093776703e-02
1.000000000000000020816681711721685132943093776703e-02,-3.947035952975838646317185975931352004408836364746e-01,4.049369853160851295825750639778561890125274658203e-01,1.000000000000000020816681711721685132943093776703e-02
2.000000000000000041633363423443370265886187553406e-02,-3.893453493026585165992514703248161822557449340820e-01,4.098050012797049834745166663196869194507598876953e-01,1.000000000000000020816681711721685132943093776703e-02
2.999999999999999888977697537484345957636833190918e-02,-3.839262016205693961445888362504774704575538635254e-01,4.146034085002560654054093447484774515032768249512e-01,1.000000000000000020816681711721685132943093776703e-02
4.000000000000000083266726846886740531772375106812e-02,-3.784470954958540356294349749077809974551200866699e-01,4.193315837074313434662542476871749386191368103027e-01,1.000000000000000020816681711721685132943093776703e-02
5.000000000000000277555756156289135105907917022705e-02,-3.729089774685956926170149472454795613884925842285e-01,4.239889196554887385026688662037486210465431213379e-01,1.000000000000000020816681711721685132943093776703e-02
6.000000000000000471844785465691529680043458938599e-02,-3.673127970361048655334457180288154631853103637695e-01,4.285748250146041438135569023870630189776420593262e-01,1.000000000000000020816681711721685132943093776703e-02
7.000000000000000666133814775093924254179000854492e-02,-3.616595063203036919396993198461132124066352844238e-01,4.330887242494198541287175885372562333941459655762e-01,1.000000000000000020816681711721685132943093776703e-02
8.000000000000000166533453693773481063544750213623e-02,-3.559500597411935363112434060894884169101715087891e-01,4.375300574849168566693435877823503687977790832520e-01,1.000000000000000020816681711721685132943093776703e-02
8.999999999999999666933092612453037872910499572754e-02,-3.501854136967896269361233407835243269801139831543e-01,4.418982803597576447529604593000840395689010620117e-01,1.000000000000000020816681711721685132943093776703e-02
9.999999999999999167332731531132594682276248931885e-02,-3.443665262499095436332652298005996271967887878418e-01,4.461928638672641445062083676020847633481025695801e-01,1.000000000000000020816681711721685132943093776703e-02
1.099999999999999866773237044981215149164199829102e-01,-3.384943568222058551953068672446534037590026855469e-01,4.504132941842152182410075056395726278424263000488e-01,1.000000000000000020816681711721685132943093776703e-02
1.199999999999999816813200936849170830100774765015e-01,-3.325698658958344822167418897151947021484375000000e-01,4.545590724876670818410673291509738191962242126465e-01,1.000000000000000020816681711721685132943093776703e-02
1.299999999999999766853164828717126511037349700928e-01,-3.265940147231516377246407500933855772018432617188e-01,4.586297147600207901874114213569555431604385375977e-01,1.000000000000000020816681711721685132943093776703e-02
1.399999999999999855671006798729649744927883148193e-01,-3.205677650448332527410855163907399401068687438965e-01,4.626247515825800959987645910587161779403686523438e-01,1.000000000000000020816681711721685132943093776703e-02
1.499999999999999944488848768742172978818416595459e-01,-3.144920788168096836834308760444400832056999206543e-01,4.665437279178649698785363852948648855090141296387e-01,1.000000000000000020816681711721685132943093776703e-02
1.600000000000000033306690738754696212708950042725e-01,-3.083679179464079989081426447228295728564262390137e-01,4.703862028809654427519149066938553005456924438477e-01,1.000000000000000020816681711721685132943093776703e-02
1.700000000000000122124532708767219446599483489990e-01,-3.021962440380913661464035158132901415228843688965e-01,4.741517495002427473593797913054004311561584472656e-01,1.000000000000000020816681711721685132943093776703e-02
1.800000000000000210942374678779742680490016937256e-01,-2.959780181491822870221142238733591511845588684082e-01,4.778399544677046639762352242541965097188949584961e-01,1.000000000000000020816681711721685132943093776703e-02
1.900000000000000299760216648792265914380550384521e-01,-2.897142005559523725288784135045716539025306701660e-01,4.814504178794039579436514486587839201092720031738e-01,1.000000000000000020816681711721685132943093776703e-02
2.000000000000000388578058618804789148271083831787e-01,-2.834057505304567459170073107088683173060417175293e-01,4.849827529662291691892050948808901011943817138672e-01,1.000000000000000020816681711721685132943093776703e-02
2.100000000000000477395900588817312382161617279053e-01,-2.770536261284840540142226927855517715215682983398e-01,4.884365858154782746858302289183484390377998352051e-01,1.000000000000000020816681711721685132943093776703e-02
2.200000000000000566213742558829835616052150726318e-01,-2.706587839889871838217061394971096888184547424316e-01,4.918115550836263949463500466663390398025512695312e-01,1.000000000000000020816681711721685132943093776703e-02
2.300000000000000655031584528842358849942684173584e-01,-2.642221791453515655767603220738237723708152770996e-01,4.951073117007191437544122436520410701632499694824e-01,1.000000000000000020816681711721685132943093776703e-02
2.400000000000000743849426498854882083833217620850e-01,-2.577447648488479514661264602182200178503990173340e-01,4.983235185668434819028504989546490833163261413574e-01,1.000000000000000020816681711721685132943093776703e-02
2.500000000000000555111512312578270211815834045410e-01,-2.512274924046077884121075385337462648749351501465e-01,5.014598502411478087026353023247793316841125488281e-01,1.000000000000000020816681711721685132943093776703e-02
2.600000000000000643929354282590793445706367492676e-01,-2.446713110204473684561321533692535012960433959961e-01,5.045159926239022318839033687254413962364196777344e-01,1.000000000000000020816681711721685132943093776703e-02
2.700000000000000732747196252603316679596900939941e-01,-2.380771676688552274114840656693559139966964721680e-01,5.074916426321085527462173558888025581836700439453e-01,1.000000000000000020816681711721685132943093776703e-02
2.800000000000000821565038222615839913487434387207e-01,-2.314460069624439120250514179133460856974124908447e-01,5.103865078691889323181385407224297523498535156250e-01,1.000000000000000020816681711721685132943093776703e-02
2.900000000000000910382880192628363147377967834473e-01,-2.247787710431534413668686056553269736468791961670e-01,5.132003062892983580312034064263571053743362426758e-01,1.000000000000000020816681711721685132943093776703e-02
3.000000000000000999200722162640886381268501281738e-01,-2.180763994854788279109669701938400976359844207764e-01,5.159327658568244601156038697808980941772460937500e-01,1.000000000000000020816681711721685132943093776703e-02
3.100000000000001088018564132653409615159034729004e-01,-2.113398292139776479814372578402981162071228027344e-01,5.185836242016539365806693240301683545112609863281e-01,1.000000000000000020816681711721685132943093776703e-02
3.200000000000001176836406102665932849049568176270e-01,-2.045699944352975530037497264856938272714614868164e-01,5.211526282708005552990471187513321638107299804688e-01,1.000000000000000020816681711721685132943093776703e-02
3.300000000000001265654248072678456082940101623535e-01,-1.977678265849450722768665400508325546979904174805e-01,5.236395339770048007466130002285353839397430419922e-01,1.000000000000000020816681711721685132943093776703e-02
3.400000000000001354472090042690979316830635070801e-01,-1.909342542889992944132870889006881043314933776855e-01,5.260441058449287776710434627602808177471160888672e-01,1.000000000000000020816681711721685132943093776703e-02
3.500000000000001443289932012703502550721168518066e-01,-1.840702033409538640462699277122737839818000793457e-01,5.283661166555844168613020883640274405479431152344e-01,1.000000000000000020816681711721685132943093776703e-02
3.600000000000001532107773982716025784611701965332e-01,-1.771765966938512182338172351592220366001129150391e-01,5.306053470896439083759332788758911192417144775391e-01,1.000000000000000020816681711721685132943093776703e-02
3.700000000000001620925615952728549018502235412598e-01,-1.702543544678517539736617436574306339025497436523e-01,5.327615853702930559521178111026529222726821899414e-01,1.000000000000000020816681711721685132943093776703e-02
3.800000000000001709743457922741072252392768859863e-01,-1.633043939733589133833646656057680957019329071045e-01,5.348346269063007918376229099521879106760025024414e-01,1.000000000000000020816681711721685132943093776703e-02
3.900000000000001798561299892753595486283302307129e-01,-1.563276297497989686391406394250225275754928588867e-01,5.368242739359837534252051227667834609746932983398e-01,1.000000000000000020816681711721685132943093776703e-02
4.000000000000001887379141862766118720173835754395e-01,-1.493249736201312793948403623289777897298336029053e-01,5.387303351727584788122271675092633813619613647461e-01,1.000000000000000020816681711721685132943093776703e-02
4.100000000000001976196983832778641954064369201660e-01,-1.422973347611413141855507547006709501147270202637e-01,5.405526254529763319212065653118770569562911987305e-01,1.000000000000000020816681711721685132943093776703e-02
4.200000000000002065014825802791165187954902648926e-01,-1.352456197895441081247014381006010808050632476807e-01,5.422909653867481472033773570728953927755355834961e-01,1.000000000000000020816681711721685132943093776703e-02
4.300000000000002153832667772803688421845436096191e-01,-1.281707328639017651195075586656457744538784027100e-01,5.439451810124669162149757539737038314342498779297e-01,1.000000000000000020816681711721685132943093776703e-02
4.400000000000002242650509742816211655735969543457e-01,-1.210735758023324670773490652209147810935974121094e-01,5.455151034557447209394354104006197303533554077148e-01,1.000000000000000020816681711721685132943093776703e-02
4.500000000000002331468351712828734889626502990723e-01,-1.139550482159636946022374104359187185764312744141e-01,5.470005685934830053085420331626664847135543823242e-01,1.000000000000000020816681711721685132943093776703e-02
4.600000000000002420286193682841258123517036437988e-01,-1.068160476580550799496904801344498991966247558594e-01,5.484014167237983850000659913348499685525894165039e-01,1.000000000000000020816681711721685132943093776703e-02
4.700000000000002509104035652853781357407569885254e-01,-9.965746978869050032301402097800746560096740722656e-02,5.497174922425271947901137536973692476749420166016e-01,1.000000000000000020816681711721685132943093776703e-02
4.800000000000002597921877622866304591298103332520e-01,-9.248020855491133340731124690137221477925777435303e-02,5.509486433270350813629079311795067042112350463867e-01,1.000000000000000020816681711721685132943093776703e-02
4.900000000000002686739719592878827825188636779785e-01,-8.528515638613563820680241178706637583673000335693e-02,5.520947216280562841461687639821320772171020507812e-01,1.000000000000000020816681711721685132943093776703e-02
5.000000000000002220446049250313080847263336181641e-01,-7.807320440467993560851311940496088936924934387207e-02,5.531555819702872467402698930527549237012863159180e-01,1.000000000000000020816681711721685132943093776703e-02
