time,u0,u1,tau
0.000000000000000000000000000000000000000000000000e+00,-9.000000000000000222044604925031308084726333618164e-01,-3.999999999999999111821580299874767661094665527344e-01,1.000000000000000020816681711721685132943093776703e-02
1.000000000000000020816681711721685132943093776703e-02,-9.125169080620044725904449478548485785722732543945e-01,-3.646060856529812488346919963078107684850692749023e-01,1.000000000000000020816681711721685132943093776703e-02
2.000000000000000041633363423443370265886187553406e-02,-9.235686520458435966318688770115841180086135864258e-01,-3.289930586269979584379541392991086468100547790527e-01,1.000000000000000020816681711721685132943093776703e-02
2.999999999999999888977697537484345957636833190918e-02,-9.331676204775293248516732091957237571477890014648e-01,-2.932163993206231000776540440710959956049919128418e-01,1.000000000000000020816681711721685132943093776703e-02
4.000000000000000083266726846886740531772375106812e-02,-9.413284619956036047838665581366512924432754516602e-01,-2.573305398835027402171249377715867012739181518555e-01,1.000000000000000020816681711721685132943093776703e-02
5.000000000000000277555756156289135105907917022705e-02,-9.480679205160043032662997575243934988975524902344e-01,-2.213887285429039231132719578454270958900451660156e-01,1.000000000000000020816681711721685132943093776703e-02
6.000000000000000471844785465691529680043458938599e-02,-9.534046588039191139074546299525536596775054931641e-01,-1.854429119370418210799300595681415870785713195801e-01,1.000000000000000020816681711721685132943093776703e-02
7.000000000000000666133814775093924254179000854492e-02,-9.573590752416286653314614341070409864187240600586e-01,-1.495436370471742715260177192249102517962455749512e-01,1.000000000000000020816681711721685132943093776703e-02
8.000000000000000166533453693773481063544750213623e-02,-9.599531183458802630070749728474766016006469726562e-01,-1.137399734807415657700246924832754302769899368286e-01,1.000000000000000020816681711721685132943093776703e-02
8.999999999999999666933092612453037872910499572754e-02,-9.612101032240004672146937991783488541841506958008e-01,-7.807945608521391078760132131719728931784629821777e-02,1.000000000000000020816681711721685132943093776703e-02
9.999999999999999167332731531132594682276248931885e-02,-9.611545336968014829892581474268808960914611816406e-01,-4.260804718820434405790464893470925744622945785522e-02,1.000000000000000020816681711721685132943093776703e-02
1.099999999999999866773237044981215149164199829102e-01,-9.598119332891010824226896147592924535274505615234e-01,-7.370117178067660257401172430036240257322788238525e-03,1.000000000000000020816681711721685132943093776703e-02
1.199999999999999816813200936849170830100774765015e-01,-9.572086877233533241948748582217376679182052612305e-01,2.759155833166374027776157618063734844326972961426e-02,1.000000000000000020816681711721685132943093776703e-02
1.299999999999999766853164828717126511037349700928e-01,-9.533719009728387483448841521749272942543029785156e-01,6.223578686900978901297420975424756761640310287476e-02,1.000000000000000020816681711721685132943093776703e-02
1.399999999999999855671006798729649744927883148193e-01,-9.483292663583937631699427583953365683555603027344e-01,9.652293536480829883039689320867182686924934387207e-02,1.000000000000000020816681711721685132943093776703e-02
1.499999999999999944488848768742172978818416595459e-01,-9.421089536229464433958469271601643413305282592773e-01,1.304148968162711086371530200267443433403968811035e-01,1.000000000000000020816681711721685132943093776703e-02
1.600000000000000033306690738754696212708950042725e-01,-9.347395124035102753623505122959613800048828125000e-01,1.638750499094366042118764426049892790615558624268e-01,1.000000000000000020816681711721685132943093776703e-02
1.700000000000000122124532708767219446599483489990e-01,-9.262497920496226555542307323776185512542724609375e-01,1.968682141204273761125875807920238003134727478027e-01,1.000000000000000020816681711721685132943093776703e-02
1.800000000000000210942374678779742680490016937256e-01,-9.166688773164837211737676625489257276058197021484e-01,2.293606027039808703538170675528817810118198394775e-01,1.000000000000000020816681711721685132943093776703e-02
1.900000000000000299760216648792265914380550384521e-01,-9.060260390938408292527128651272505521774291992188e-01,2.613197758026054584590269769250880926847457885742e-01,1.000000000000000020816681711721685132943093776703e-02
2.000000000000000388578058618804789148271083831787e-01,-8.943506990197856998392467176017817109823226928711e-01,2.927145956818965055745707104506436735391616821289e-01,1.000000000000000020816681711721685132943093776703e-02
2.100000000000000477395900588817312382161617279053e-01,-8.816724065725302095231086241255979984998703002930e-01,3.235151858276780756362711599649628624320030212402e-01,1.000000000000000020816681711721685132943093776703e-02
2.200000000000000566213742558829835616052150726318e-01,-8.680208270324395458672483982809353619813919067383e-01,3.536928953389479324265209925215458497405052185059e-01,1.000000000000000020816681711721685132943093776703e-02
2.300000000000000655031584528842358849942684173584e-01,-8.534257385600020340277183095167856663465499877930e-01,3.832202697268974889155401797324884682893753051758e-01,1.000000000000000020816681711721685132943093776703e-02
2.400000000000000743849426498854882083833217620850e-01,-8.379170365414603249831770881428383290767669677734e-01,4.120710288939503640470718437427422031760215759277e-01,1.000000000000000020816681711721685132943093776703e-02
2.500000000000000555111512312578270211815834045410e-01,-8.215247433106360741561502436525188386440277099609e-01,4.402200527268592122887014284060569480061531066895e-01,1.000000000000000020816681711721685132943093776703e-02
2.600000000000000643929354282590793445706367492676e-01,-8.042790213608650429222279854002408683300018310547e-01,4.676433744031410766339718065864872187376022338867e-01,1.000000000000000020816681711721685132943093776703e-02
2.700000000000000732747196252603316679596900939941e-01,-7.862101882124065133083945511316414922475814819336e-01,4.943181811889058030473620419797953218221664428711e-01,1.000000000000000020816681711721685132943093776703e-02
2.800000000000000821565038222615839913487434387207e-01,-7.673487311952537082149206071335356682538986206055e-01,5.202228222064484430831043937359936535358428955078e-01,1.000000000000000020816681711721685132943093776703e-02
2.900000000000000910382880192628363147377967834473e-01,-7.477253205414885472990249581926036626100540161133e-01,5.453368223793394475862328363291453570127487182617e-01,1.000000000000000020816681711721685132943093776703e-02
3.000000000000000999200722162640886381268501281738e-01,-7.273708193511081443460852824500761926174163818359e-01,5.696409015279941812082142860163003206253051757812e-01,1.000000000000000020816681711721685132943093776703e-02
3.100000000000001088018564132653409615159034729004e-01,-7.063162891958134625980392229394055902957916259766e-01,5.931169973957927110674859250138979405164718627930e-01,1.000000000000000020816681711721685132943093776703e-02
3.200000000000001176836406102665932849049568176270e-01,-6.845929903510724612303306457761209458112716674805e-01,6.157482912396061713877770671388134360313415527344e-01,1.000000000000000020816681711721685132943093776703e-02
3.300000000000001265654248072678456082940101623535e-01,-6.622323758916119906814401474548503756523132324219e-01,6.375192345225593193447366502368822693824768066406e-01,1.000000000000000020816681711721685132943093776703e-02
3.400000000000001354472090042690979316830635070801e-01,-6.392660791424992217102385438920464366674423217773e-01,6.584155752029771102584732034301850944757461547852e-01,1.000000000000000020816681711721685132943093776703e-02
3.500000000000001443289932012703502550721168518066e-01,-6.157258942398114998084679427847731858491897583008e-01,6.784243821219564374302990472642704844474792480469e-01,1.000000000000000020816681711721685132943093776703e-02
3.600000000000001532107773982716025784611701965332e-01,-5.916437498139791584250701816927175968885421752930e-01,6.975340660513137391873783599294256418943405151367e-01,1.000000000000000020816681711721685132943093776703e-02
3.700000000000001620925615952728549018502235412598e-01,-5.670516760576542747429584778728894889354705810547e-01,7.157343960704487528801109874621033668518066406250e-01,1.000000000000000020816681711721685132943093776703e-02
3.800000000000001709743457922741072252392768859863e-01,-5.419817656711388709211973946366924792528152465820e-01,7.330165100899057595285057686851359903812408447266e-01,1.000000000000000020816681711721685132943093776703e-02
3.900000000000001798561299892753595486283302307129e-01,-5.164661293853645140927710599498823285102844238281e-01,7.493729185246140733767106212326325476169586181641e-01,1.000000000000000020816681711721685132943093776703e-02
4.000000000000001887379141862766118720173835754395e-01,-4.905368469394039698805443094897782430052757263184e-01,7.647975003332750931761552237730938941240310668945e-01,1.000000000000000020816681711721685132943093776703e-02
4.100000000000001976196983832778641954064369201660e-01,-4.642259145319393986994782608235254883766174316406e-01,7.792854908736429608850926342711318284273147583008e-01,1.000000000000000020816681711721685132943093776703e-02
4.200000000000002065014825802791165187954902648926e-01,-4.375651898707715869996093260851921513676643371582e-01,7.928334612676072312709152356546837836503982543945e-01,1.000000000000000020816681711721685132943093776703e-02
4.300000000000002153832667772803688421845436096191e-01,-4.105863360095752812028990774706471711397171020508e-01,8.054392892161424954977633205999154597520828247070e-01,1.000000000000000020816681711721685132943093776703e-02
4.400000000000002242650509742816211655735969543457e-01,-3.833207651864215526060775118821766227483749389648e-01,8.171021214438498603271909814793616533279418945312e-01,1.000000000000000020816681711721685132943093776703e-02
4.500000000000002331468351712828734889626502990723e-01,-3.557995838652944220470430991554167121648788452148e-01,8.278223281782798315120430743263568729162216186523e-01,1.000000000000000020816681711721685132943093776703e-02
4.600000000000002420286193682841258123517036437988e-01,-3.280535401324568556269412056280998513102531433105e-01,8.376014502738665656877969922788906842470169067383e-01,1.000000000000000020816681711721685132943093776703e-02
4.700000000000002509104035652853781357407569885254e-01,-3.001129745177266716638087018509395420551300048828e-01,8.464421397687825754374557618575636297464370727539e-01,1.000000000000000020816681711721685132943093776703e-02
4.800000000000002597921877622866304591298103332520e-01,-2.720077752010726657161399089090991765260696411133e-01,8.543480948114419160077659398666583001613616943359e-01,1.000000000000000020816681711721685132943093776703e-02
4.900000000000002686739719592878827825188636779785e-01,-2.437673384326209669037410776581964455544948577881e-01,8.613239900092838352563262560579460114240646362305e-01,1.000000000000000020816681711721685132943093776703e-02
5.000000000000002220446049250313080847263336181641e-01,-2.154205348447088830265983006029273383319377899170e-01,8.673754033348423098104262862761970609426498413086e-01,1.000000000000000020816681711721685132943093776703e-02
