time,u0,u1,tau
0.000000000000000000000000000000000000000000000000e+00,9.000000000000001332267629550187848508358001708984e-01,1.000000000000000000000000000000000000000000000000e+00,1.000000000000000020816681711721685132943093776703e-02
1.000000000000000020816681711721685132943093776703e-02,9.510483651187361386902807680598925799131393432617e-01,9.181484991637531845043440625886432826519012451172e-01,1.000000000000000020816681711721685132943093776703e-02
2.000000000000000041633363423443370265886187553406e-02,9.949508103069053532863108557648956775665283203125e-01,8.382060654359304585625523031922057271003723144531e-01,1.000000000000000020816681711721685132943093776703e-02
2.999999999999999888977697537484345957636833190918e-02,1.032448467747090647961272225074935704469680786133e+00,7.599668842104989607832976616919040679931640625000e-01,1.000000000000000020816681711721685132943093776703e-02
4.000000000000000083266726846886740531772375106812e-02,1.064142033533275411016916223161388188600540161133e+00,6.833143470125244700597022529109381139278411865234e-01,1.000000000000000020816681711721685132943093776703e-02
5.000000000000000277555756156289135105907917022705e-02,1.090531954966021954689381345815490931272506713867e+00,6.081874087902182646203641525062266737222671508789e-01,1.000000000000000020816681711721685132943093776703e-02
6.000000000000000471844785465691529680043458938599e-02,1.112044441914607162402717221993952989578247070312e+00,5.345600201029677700503839332668576389551162719727e-01,1.000000000000000020816681711721685132943093776703e-02
7.000000000000000666133814775093924254179000854492e-02,1.129048931458771276581387610349338501691818237305e+00,4.624281879703410758075676767475670203566551208496e-01,1.000000000000000020816681711721685132943093776703e-02
8.000000000000000166533453693773481063544750213623e-02,1.141870196776677115479969870648346841335296630859e+00,3.918016782805742170836538207367993891239166259766e-01,1.000000000000000020816681711721685132943093776703e-02
8.999999999999999666933092612453037872910499572754e-02,1.150796992650206851394045770575758069753646850586e+00,3.226986391280918797797028219065396115183830261230e-01,1.000000000000000020816681711721685132943093776703e-02
9.999999999999999167332731531132594682276248931885e-02,1.156088402813838733607099129585549235343933105469e+00,2.551421109184870972264036481647053733468055725098e-01,1.000000000000000020816681711721685132943093776703e-02
1.099999999999999866773237044981215149164199829102e-01,1.157978629506086098999162459222134202718734741211e+00,1.891577780122226659642592494492419064044952392578e-01,1.000000000000000020816681711721685132943093776703e-02
1.199999999999999816813200936849170830100774765015e-01,1.156680708003459567834170229616574943065643310547e+00,1.247725458034999873602188813492830377072095870972e-01,1.000000000000000020816681711721685132943093776703e-02
1.299999999999999766853164828717126511037349700928e-01,1.152389467581182547206708477460779249668121337891e+00,6.201366693650028905082649544056039303541183471680e-02,1.000000000000000020816681711721685132943093776703e-02
1.399999999999999855671006798729649744927883148193e-01,1.145283956290173765779627501615323126316070556641e+00,9.082284907419857500343596257152967154979705810547e-04,1.000000000000000020816681711721685132943093776703e-02
1.499999999999999944488848768742172978818416595459e-01,1.135529478031508832103213535447139292955398559570e+00,-5.851713070469745370250080895857536233961582183838e-02,1.000000000000000020816681711721685132943093776703e-02
1.600000000000000033306690738754696212708950042725e-01,1.123279343685334330515956935414578765630722045898e+00,-1.162363649742113591578629439027281478047370910645e-01,1.000000000000000020816681711721685132943093776703e-02
1.700000000000000122124532708767219446599483489990e-01,1.108676405717879509538192905893083661794662475586e+00,-1.722240945399050038311372645694063976407051086426e-01,1.000000000000000020816681711721685132943093776703e-02
1.800000000000000210942374678779742680490016937256e-01,1.091854422953820957786774670239537954330444335938e+00,-2.264556525138260445473292747919913381338119506836e-01,1.000000000000000020816681711721685132943093776703e-02
1.900000000000000299760216648792265914380550384521e-01,1.072939286052531526749476142867933958768844604492e+00,-2.789071382100479778998192159633617848157882690430e-01,1.000000000000000020816681711721685132943093776703e-02
2.000000000000000388578058618804789148271083831787e-01,1.052050122741621240862741615273989737033843994141e+00,-3.295554977708252675228095540660433471202850341797e-01,1.000000000000000020816681711721685132943093776703e-02
2.100000000000000477395900588817312382161617279053e-01,1.029300293786801434592348414298612624406814575195e+00,-3.783786442788511505952442348643671721220016479492e-01,1.000000000000000020816681711721685132943093776703e-02
2.200000000000000566213742558829835616052150726318e-01,1.004798285180073857958404914825223386287689208984e+00,-4.253556223579644246512998506659641861915588378906e-01,1.000000000000000020816681711721685132943093776703e-02
2.300000000000000655031584528842358849942684173584e-01,9.786484985371932676656570038176141679286956787109e-01,-4.704668164032982380362568619602825492620468139648e-01,1.000000000000000020816681711721685132943093776703e-02
2.400000000000000743849426498854882083833217620850e-01,9.509519397998620338086084302631206810474395751953e-01,-5.136941968511677947262228371982928365468978881836e-01,1.000000000000000020816681711721685132943093776703e-02
2.500000000000000555111512312578270211815834045410e-01,9.218068057225607958571345079690217971801757812500e-01,-5.550215952229655691496645886218175292015075683594e-01,1.000000000000000020816681711721685132943093776703e-02
2.600000000000000643929354282590793445706367492676e-01,8.913089680242557433231809227436315268278121948242e-01,-5.944349960334118776472678291611373424530029296875e-01,1.000000000000000020816681711721685132943093776703e-02
2.700000000000000732747196252603316679596900939941e-01,8.595523562619558077813053387217223644256591796875e-01,-6.319228320353672545550693939730990678071975708008e-01,1.000000000000000020816681711721685132943093776703e-02
2.800000000000000821565038222615839913487434387207e-01,8.266292422065794065488830710819456726312637329102e-01,-6.674762686627175867215555626899003982543945312500e-01,1.000000000000000020816681711721685132943093776703e-02
2.900000000000000910382880192628363147377967834473e-01,7.926304305470024402779927186202257871627807617188e-01,-7.010894638795542865850052294263150542974472045898e-01,1.000000000000000020816681711721685132943093776703e-02
3.000000000000000999200722162640886381268501281738e-01,7.576453628979437082691106297716032713651657104492e-01,-7.327597908553414862709018962050322443246841430664e-01,1.000000000000000020816681711721685132943093776703e-02
3.100000000000001088018564132653409615159034729004e-01,7.217621441388538672256913741875905543565750122070e-01,-7.624880128246390720292424703075084835290908813477e-01,1.000000000000000020816681711721685132943093776703e-02
3.200000000000001176836406102665932849049568176270e-01,6.850675018868099819258077332051470875740051269531e-01,-7.902784019802637782703413904528133571147918701172e-01,1.000000000000000020816681711721685132943093776703e-02
3.300000000000001265654248072678456082940101623535e-01,6.476466912649302409832330340577755123376846313477e-01,-8.161387970885356502037666359683498740196228027344e-01,1.000000000000000020816681711721685132943093776703e-02
3.400000000000001354472090042690979316830635070801e-01,6.095833579715704830803701952390838414430618286133e-01,-8.400805974931919717363371091778390109539031982422e-01,1.000000000000000020816681711721685132943093776703e-02
3.500000000000001443289932012703502550721168518066e-01,5.709593729358801716955440497258678078651428222656e-01,-8.621186940880661842001586592232342809438705444336e-01,1.000000000000000020816681711721685132943093776703e-02
3.600000000000001532107773982716025784611701965332e-01,5.318546515622504244902302161790430545806884765625e-01,-8.822713405102495798359996115323156118392944335938e-01,1.000000000000000020816681711721685132943093776703e-02
3.700000000000001620925615952728549018502235412598e-01,4.923469697637442576976241070951800793409347534180e-01,-9.005599700954145525599869870347902178764343261719e-01,1.000000000000000020816681711721685132943093776703e-02
3.800000000000001709743457922741072252392768859863e-01,4.525117877419441159148050246585626155138015747070e-01,-9.170089659506176493763973667228128761053085327148e-01,1.000000000000000020816681711721685132943093776703e-02
3.900000000000001798561299892753595486283302307129e-01,4.124220908909538296782670840912032872438430786133e-01,-9.316453927894690068001182225998491048812866210938e-01,1.000000000000000020816681711721685132943093776703e-02
4.000000000000001887379141862766118720173835754395e-01,3.721482554015798083213439895189367234706878662109e-01,-9.444986999359646917540089816611725836992263793945e-01,1.000000000000000020816681711721685132943093776703e-02
4.100000000000001976196983832778641954064369201660e-01,3.317579442334075423559625050984323024749755859375e-01,-9.556004051690344391900566733966115862131118774414e-01,1.000000000000000020816681711721685132943093776703e-02
4.200000000000002065014825802791165187954902648926e-01,2.913160372137981735107814529328607022762298583984e-01,-9.649837689097046089514719824364874511957168579102e-01,1.000000000000000020816681711721685132943093776703e-02
4.300000000000002153832667772803688421845436096191e-01,2.508845972038080129884463076450629159808158874512e-01,-9.726834677235673964901252475101500749588012695312e-01,1.000000000000000020816681711721685132943093776703e-02
4.400000000000002242650509742816211655735969543457e-01,2.105228726115087323211838565839570946991443634033e-01,-9.787352753074222144746840967854950577020645141602e-01,1.000000000000000020816681711721685132943093776703e-02
4.500000000000002331468351712828734889626502990723e-01,1.702873350814277653153538949482026509940624237061e-01,-9.831757581344452434635172721755225211381912231445e-01,1.000000000000000020816681711721685132943093776703e-02
4.600000000000002420286193682841258123517036437988e-01,1.302317499724723881548982262756908312439918518066e-01,-9.860419918243810144531380501575767993927001953125e-01,1.000000000000000020816681711721685132943093776703e-02
4.700000000000002509104035652853781357407569885254e-01,9.040727626529784788367294368072180077433586120605e-02,-9.873713031507536097564070587395690381526947021484e-01,1.000000000000000020816681711721685132943093776703e-02
4.800000000000002597921877622866304591298103332520e-01,5.086259180860969869586440950115502346307039260864e-02,-9.872010414499826636003376734151970595121383666992e-01,1.000000000000000020816681711721685132943093776703e-02
4.900000000000002686739719592878827825188636779785e-01,1.164403930665904030039570216104038991034030914307e-02,-9.855683820983739407139978538907598704099655151367e-01,1.000000000000000020816681711721685132943093776703e-02
5.000000000000002220446049250313080847263336181641e-01,-2.720421185537878067117745217728952411562204360962e-02,-9.825101637005595467400098641519434750080108642578e-01,1.000000000000000020816681711721685132943093776703e-02
