time,u0,u1,tau
0.000000000000000000000000000000000000000000000000e+00,3.000000000000000444089209850062616169452667236328e-01,7.000000000000001776356839400250464677810668945312e-01,1.000000000000000020816681711721685132943093776703e-02
1.000000000000000020816681711721685132943093776703e-02,3.164130705558843015268166709574870765209197998047e-01,6.926715831118133159804983733920380473136901855469e-01,1.000000000000000020816681711721685132943093776703e-02
2.000000000000000041633363423443370265886187553406e-02,3.326446331111395648960638027347158640623092651367e-01,6.849858405076785228260405347100459039211273193359e-01,1.000000000000000020816681711721685132943093776703e-02
2.999999999999999888977697537484345957636833190918e-02,3.486868578527823614443548194685718044638633728027e-01,6.769467032671530049015018448699265718460083007812e-01,1.000000000000000020816681711721685132943093776703e-02
4.000000000000000083266726846886740531772375106812e-02,3.645319343391304478529946209164336323738098144531e-01,6.685581935600491965132619043288286775350570678711e-01,1.000000000000000020816681711721685132943093776703e-02
5.000000000000000277555756156289135105907917022705e-02,3.801720708436361895188326798233902081847190856934e-01,6.598244317335916209188440006983000785112380981445e-01,1.000000000000000020816681711721685132943093776703e-02
6.000000000000000471844785465691529680043458938599e-02,3.955994946144178459057627605943707749247550964355e-01,6.507496438642087488446463794389273971319198608398e-01,1.000000000000000020816681711721685132943093776703e-02
7.000000000000000666133814775093924254179000854492e-02,4.108064530894519061909875290439231321215629577637e-01,6.413381696866562453607230054331012070178985595703e-01,1.000000000000000020816681711721685132943093776703e-02
8.000000000000000166533453693773481063544750213623e-02,4.257852160983837674912422244233312085270881652832e-01,6.315944708089825665453531655657570809125900268555e-01,1.000000000000000020816681711721685132943093776703e-02
8.999999999999999666933092612453037872910499572754e-02,4.405280790723666850539075312553904950618743896484e-01,6.215231391183134723732450765965040773153305053711e-01,1.000000000000000020816681711721685132943093776703e-02
9.999999999999999167332731531132594682276248931885e-02,4.550273672733160523762308002915233373641967773438e-01,6.111289052796130549793929276347626000642776489258e-01,1.000000000000000020816681711721685132943093776703e-02
1.099999999999999866773237044981215149164199829102e-01,4.692754410435421297265179418900515884160995483398e-01,6.004166472275275223680068847897928208112716674805e-01,1.000000000000000020816681711721685132943093776703e-02
1.199999999999999816813200936849170830100774765015e-01,4.832647020659874836923108887276612222194671630859e-01,5.893913985502009511563414889678824692964553833008e-01,1.000000000000000020816681711721685132943093776703e-02
1.299999999999999766853164828717126511037349700928e-01,4.969876006143472135789806998218409717082977294922e-01,5.780583566636158243667864553572144359350204467773e-01,1.000000000000000020816681711721685132943093776703e-02
1.399999999999999855671006798729649744927883148193e-01,5.104366437613037099652046890696510672569274902344e-01,5.664228906756142434275602681736927479505538940430e-01,1.000000000000000020816681711721685132943093776703e-02
1.499999999999999944488848768742172978818416595459e-01,5.236044045020890047581474391336087137460708618164e-01,5.544905488403394366869747500459197908639907836914e-01,1.000000000000000020816681711721685132943093776703e-02
1.600000000000000033306690738754696212708950042725e-01,5.364835317397310676668098494701553136110305786133e-01,5.422670655064329992001148639246821403503417968750e-01,1.000000000000000020816681711721685132943093776703e-02
1.700000000000000122124532708767219446599483489990e-01,5.490667610677929522111639926151838153600692749023e-01,5.297583674659614993984746433852706104516983032227e-01,1.000000000000000020816681711721685132943093776703e-02
1.800000000000000210942374678779742680490016937256e-01,5.613469262763240985592005927173886448144912719727e-01,5.169705796157313404393107703072018921375274658203e-01,1.000000000000000020816681711721685132943093776703e-02
1.900000000000000299760216648792265914380550384521e-01,5.733169714972652375450934414402581751346588134766e-01,5.039100298483785156378189640236087143421173095703e-01,1.000000000000000020816681711721685132943093776703e-02
2.000000000000000388578058618804789148271083831787e-01,5.849699638968417492179696637322194874286651611328e-01,4.905832530973670002616415786178549751639366149902e-01,1.000000000000000020816681711721685132943093776703e-02
2.100000000000000477395900588817312382161617279053e-01,5.962991068146922257753317353490274399518966674805e-01,4.769969944677588391535039136215345934033393859863e-01,1.000000000000000020816681711721685132943093776703e-02
2.200000000000000566213742558829835616052150726318e-01,6.072977532427554780980472060036845505237579345703e-01,4.631582113932588562477121740812435746192932128906e-01,1.000000000000000020816681711721685132943093776703e-02
2.300000000000000655031584528842358849942684173584e-01,6.179594195314185300915710286062676459550857543945e-01,4.490740747695194934330231717467540875077247619629e-01,1.000000000000000020816681711721685132943093776703e-02
2.400000000000000743849426498854882083833217620850e-01,6.282777992062239524884148522687610238790512084961e-01,4.347519690239053935520985305629437789320945739746e-01,1.000000000000000020816681711721685132943093776703e-02
2.500000000000000555111512312578270211815834045410e-01,6.382467767756525578448645319440402090549468994141e-01,4.201994910927504545128385871066711843013763427734e-01,1.000000000000000020816681711721685132943093776703e-02
2.600000000000000643929354282590793445706367492676e-01,6.478604414092133945146656515134964138269424438477e-01,4.054244482884523104182505903736455366015434265137e-01,1.000000000000000020816681711721685132943093776703e-02
2.700000000000000732747196252603316679596900939941e-01,6.571131003653447599788250954588875174522399902344e-01,3.904348550503906611908178092562593519687652587891e-01,1.000000000000000020816681711721685132943093776703e-02
2.800000000000000821565038222615839913487434387207e-01,6.659992920504783642243751273781526833772659301758e-01,3.752389285854625389227123832824872806668281555176e-01,1.000000000000000020816681711721685132943093776703e-02
2.900000000000000910382880192628363147377967834473e-01,6.745137985940461433642667543608695268630981445312e-01,3.598450834158255506878276719362474977970123291016e-01,1.000000000000000020816681711721685132943093776703e-02
3.000000000000000999200722162640886381268501281738e-01,6.826516578291800252387133696174714714288711547852e-01,3.442619248630534034560923828394152224063873291016e-01,1.000000000000000020816681711721685132943093776703e-02
3.100000000000001088018564132653409615159034729004e-01,6.904081745753052334890753627405501902103424072266e-01,3.284982415091530771888983508688397705554962158203e-01,1.000000000000000020816681711721685132943093776703e-02
3.200000000000001176836406102665932849049568176270e-01,6.977789311266655580823226046049967408180236816406e-01,3.125629966855973385086997495818650349974632263184e-01,1.000000000000000020816681711721685132943093776703e-02
3.300000000000001265654248072678456082940101623535e-01,7.047597968599200735084764346538577228784561157227e-01,2.964653190515154079776038997806608676910400390625e-01,1.000000000000000020816681711721685132943093776703e-02
3.400000000000001354472090042690979316830635070801e-01,7.113469368841733864172738321940414607524871826172e-01,2.802144923313039104328936446108855307102203369141e-01,1.000000000000000020816681711721685132943093776703e-02
3.500000000000001443289932012703502550721168518066e-01,7.175368196679696719542107530287466943264007568359e-01,2.638199442900223123942282654752489179372787475586e-01,1.000000000000000020816681711721685132943093776703e-02
3.600000000000001532107773982716025784611701965332e-01,7.233262235897117697902558575151488184928894042969e-01,2.472912350319003971232945104929967783391475677490e-01,1.000000000000000020816681711721685132943093776703e-02
3.700000000000001620925615952728549018502235412598e-01,7.287122423704559537327440921217203140258789062500e-01,2.306380447130038646719185635447502136230468750000e-01,1.000000000000000020816681711721685132943093776703e-02
3.800000000000001709743457922741072252392768859863e-01,7.336922893608721629732372093712911009788513183594e-01,2.138701607635016821440387957409257069230079650879e-01,1.000000000000000020816681711721685132943093776703e-02
3.900000000000001798561299892753595486283302307129e-01,7.382641006671288863572044647298753261566162109375e-01,1.969974647179999205359735015008482150733470916748e-01,1.000000000000000020816681711721685132943093776703e-02
4.000000000000001887379141862766118720173835754395e-01,7.424257371133552441122560594521928578615188598633e-01,1.800299187540273238017363155449857003986835479736e-01,1.000000000000000020816681711721685132943093776703e-02
4.100000000000001976196983832778641954064369201660e-01,7.461755850509322884889229499094653874635696411133e-01,1.629775520389795673281696508638560771942138671875e-01,1.000000000000000020816681711721685132943093776703e-02
4.200000000000002065014825802791165187954902648926e-01,7.495123560369830739702479149855207651853561401367e-01,1.458504469846785001063693698597489856183528900146e-01,1.000000000000000020816681711721685132943093776703e-02
4.300000000000002153832667772803688421845436096191e-01,7.524350854158776691349430620903149247169494628906e-01,1.286587255062350831913420279306592419743537902832e-01,1.000000000000000020816681711721685132943093776703e-02
4.400000000000002242650509742816211655735969543457e-01,7.549431298481820151735632862255442887544631958008e-01,1.114125353781984933965176765013893600553274154663e-01,1.000000000000000020816681711721685132943093776703e-02
4.500000000000002331468351712828734889626502990723e-01,7.570361638411200466691752808401361107826232910156e-01,9.412203677612590579926177269953768700361251831055e-02,1.000000000000000020816681711721685132943093776703e-02
4.600000000000002420286193682841258123517036437988e-01,7.587141753431604351831651911197695881128311157227e-01,7.679738908583695622400711044974741525948047637939e-02,1.000000000000000020816681711721685132943093776703e-02
4.700000000000002509104035652853781357407569885254e-01,7.599774604726965421264139877166599035263061523438e-01,5.944873805585634135573158687293471302837133407593e-02,1.000000000000000020816681711721685132943093776703e-02
4.800000000000002597921877622866304591298103332520e-01,7.608266174568882878048725615371949970722198486328e-01,4.208620336104031134372149836053722538053989410400e-02,1.000000000000000020816681711721685132943093776703e-02
4.900000000000002686739719592878827825188636779785e-01,7.612625398615406879798683803528547286987304687500e-01,2.471986663728172051168741063520428724586963653564e-02,1.000000000000000020816681711721685132943093776703e-02
5.000000000000002220446049250313080847263336181641e-01,7.612864091963845725175019651942420750856399536133e-01,7.359760038649049151970871207595337182283401489258e-03,1.000000000000000020816681711721685132943093776703e-02
