time,u0,u1,tau
0.000000000000000000000000000000000000000000000000e+00,-6.999999999999999555910790149937383830547332763672e-01,-5.999999999999999777955395074968691915273666381836e-01,1.000000000000000020816681711721685132943093776703e-02
1.000000000000000020816681711721685132943093776703e-02,-7.191647888364021135032544407295063138008117675781e-01,-5.755076452869363201614305580733343958854675292969e-01,1.000000000000000020816681711721685132943093776703e-02
2.000000000000000041633363423443370265886187553406e-02,-7.373997763642771152703403458872344344854354858398e-01,-5.504879375056349610773054337187204509973526000977e-01,1.000000000000000020816681711721685132943093776703e-02
2.999999999999999888977697537484345957636833190918e-02,-7.546919088038940293117207147588487714529037475586e-01,-5.249723578905997056764931585348676890134811401367e-01,1.000000000000000020816681711721685132943093776703e-02
4.000000000000000083266726846886740531772375106812e-02,-7.710294672118936931681787427805829793214797973633e-01,-4.989929164129636718350013779854634776711463928223e-01,1.000000000000000020816681711721685132943093776703e-02
5.000000000000000277555756156289135105907917022705e-02,-7.864021258400990532777541375253349542617797851562e-01,-4.725821049180987110105434112483635544776916503906e-01,1.000000000000000020816681711721685132943093776703e-02
6.000000000000000471844785465691529680043458938599e-02,-8.008010005719375934418735596409533172845840454102e-01,-4.457728400268713420118160684069152921438217163086e-01,1.000000000000000020816681711721685132943093776703e-02
7.000000000000000666133814775093924254179000854492e-02,-8.142186862956647397382425879186484962701797485352e-01,-4.185983971511444412527680469793267548084259033203e-01,1.000000000000000020816681711721685132943093776703e-02
8.000000000000000166533453693773481063544750213623e-02,-8.266492824027054098223743494600057601928710937500e-01,-3.910923371453616237403139166417531669139862060547e-01,1.000000000000000020816681711721685132943093776703e-02
8.999999999999999666933092612453037872910499572754e-02,-8.380884059392399443311205686768516898155212402344e-01,-3.632884272370463518697647486987989395856857299805e-01,1.000000000000000020816681711721685132943093776703e-02
9.999999999999999167332731531132594682276248931885e-02,-8.485331922775122270863334961177315562963485717773e-01,-3.352205579473752639074746184633113443851470947266e-01,1.000000000000000020816681711721685132943093776703e-02
1.099999999999999866773237044981215149164199829102e-01,-8.579822834987068658207931548531632870435714721680e-01,-3.069226577284166479486771095253061503171920776367e-01,1.000000000000000020816681711721685132943093776703e-02
1.199999999999999816813200936849170830100774765015e-01,-8.664358049812432849279275615117512643337249755859e-01,-2.784286070080357888834043933456996455788612365723e-01,1.000000000000000020816681711721685132943093776703e-02
1.299999999999999766853164828717126511037349700928e-01,-8.738953309581835027231022650084923952817916870117e-01,-2.497721532506827490927037160872714594006538391113e-01,1.000000000000000020816681711721685132943093776703e-02
1.399999999999999855671006798729649744927883148193e-01,-8.803638400382635120777763404475990682840347290039e-01,-2.209868285177612468039853865775512531399726867676e-01,1.000000000000000020816681711721685132943093776703e-02
1.499999999999999944488848768742172978818416595459e-01,-8.858456618720388364707218897819984704256057739258e-01,-1.921058708517743851551529132848372682929039001465e-01,1.000000000000000020816681711721685132943093776703e-02
1.600000000000000033306690738754696212708950042725e-01,-8.903464162850954766170730181329417973756790161133e-01,-1.631621506215653327753756229867576621472835540771e-01,1.000000000000000020816681711721685132943093776703e-02
1.700000000000000122124532708767219446599483489990e-01,-8.938729462935570690973463570117019116878509521484e-01,-1.341881027597730813294418794612283818423748016357e-01,1.000000000000000020816681711721685132943093776703e-02
1.800000000000000210942374678779742680490016937256e-01,-8.964332464643843811913370700494851917028427124023e-01,-1.052156656061976058857965199422324076294898986816e-01,1.000000000000000020816681711721685132943093776703e-02
1.900000000000000299760216648792265914380550384521e-01,-8.980363880869428605535631504608318209648132324219e-01,-7.627622684988595580524162187430192716419696807861e-02,1.000000000000000020816681711721685132943093776703e-02
2.000000000000000388578058618804789148271083831787e-01,-8.986924425869737831362726865336298942565917968750e-01,-4.740057684556007316922787708790565375238656997681e-02,1.000000000000000020816681711721685132943093776703e-02
2.100000000000000477395900588817312382161617279053e-01,-8.984124045443115935682953931973315775394439697266e-01,-1.861886937281271789390579840528516797348856925964e-02,1.000000000000000020816681711721685132943093776703e-02
2.200000000000000566213742558829835616052150726318e-01,-8.972081155768962812402378403930924832820892333984e-01,1.003941028539389809792758967432746430858969688416e-02,1.000000000000000020816681711721685132943093776703e-02
2.300000000000000655031584528842358849942684173584e-01,-8.950921902315387423954007317661307752132415771484e-01,3.854547024074758687639530307933455333113670349121e-02,1.000000000000000020816681711721685132943093776703e-02
2.400000000000000743849426498854882083833217620850e-01,-8.920779448822236945559893683821428567171096801758e-01,6.687123031961766939090807682077866047620773315430e-02,1.000000000000000020816681711721685132943093776703e-02
2.500000000000000555111512312578270211815834045410e-01,-8.881793304849776582443610095651820302009582519531e-01,9.498933437548061353705719511708593927323818206787e-02,1.000000000000000020816681711721685132943093776703e-02
2.600000000000000643929354282590793445706367492676e-01,-8.834108698796010461506966748856939375400543212891e-01,1.228731572630875623630686277465429157018661499023e-01,1.000000000000000020816681711721685132943093776703e-02
2.700000000000000732747196252603316679596900939941e-01,-8.777876001674900230398179701296612620353698730469e-01,1.504968072164794556933031799417221918702125549316e-01,1.000000000000000020816681711721685132943093776703e-02
2.800000000000000821565038222615839913487434387207e-01,-8.713250205354124977574770127830561250448226928711e-01,1.778351244199515845956227622082224115729331970215e-01,1.000000000000000020816681711721685132943093776703e-02
2.900000000000000910382880192628363147377967834473e-01,-8.640390457409288238466160692041739821434020996094e-01,2.048636765833509731926653785194503143429756164551e-01,1.000000000000000020816681711721685132943093776703e-02
3.000000000000000999200722162640886381268501281738e-01,-8.559459653290578673434652046125847846269607543945e-01,2.315587523321827601030520327185513451695442199707e-01,1.000000000000000020816681711721685132943093776703e-02
3.100000000000001088018564132653409615159034729004e-01,-8.470624085141194026249422677210532128810882568359e-01,2.578973532007975411062261628103442490100860595703e-01,1.000000000000000020816681711721685132943093776703e-02
3.200000000000001176836406102665932849049568176270e-01,-8.374053145372868378615294204792007803916931152344e-01,2.838571849755912035462301901134196668863296508789e-01,1.000000000000000020816681711721685132943093776703e-02
3.300000000000001265654248072678456082940101623535e-01,-8.269919082006437216492145125812385231256484985352e-01,3.094166490770199340332169413159135729074478149414e-01,1.000000000000000020816681711721685132943093776703e-02
3.400000000000001354472090042690979316830635070801e-01,-8.158396801834704170630629960214719176292419433594e-01,3.345548345967894188213165307388408109545707702637e-01,1.000000000000000020816681711721685132943093776703e-02
3.500000000000001443289932012703502550721168518066e-01,-8.039663716667666548687520844396203756332397460938e-01,3.592515115223647303999143787223147228360176086426e-01,1.000000000000000020816681711721685132943093776703e-02
3.600000000000001532107773982716025784611701965332e-01,-7.913899627280317483624116903229150921106338500977e-01,3.834871255875532125578786235564621165394783020020e-01,1.000000000000000020816681711721685132943093776703e-02
3.700000000000001620925615952728549018502235412598e-01,-7.781286639202321664399164546921383589506149291992e-01,4.072427950879318747645640996779548004269599914551e-01,1.000000000000000020816681711721685132943093776703e-02
3.800000000000001709743457922741072252392768859863e-01,-7.642009104166240796018882974749431014060974121094e-01,4.305003098959089280484135997539851814508438110352e-01,1.000000000000000020816681711721685132943093776703e-02
3.900000000000001798561299892753595486283302307129e-01,-7.496253580864089549606887885602191090583801269531e-01,4.532421328047787079107422414381289854645729064941e-01,1.000000000000000020816681711721685132943093776703e-02
4.000000000000001887379141862766118720173835754395e-01,-7.344208808646459640812054203706793487071990966797e-01,4.754514032267496137507123421528376638889312744141e-01,1.000000000000000020816681711721685132943093776703e-02
4.100000000000001976196983832778641954064369201660e-01,-7.186065687928121503702527661516796797513961791992e-01,4.971119431690128598333444642776157706975936889648e-01,1.000000000000000020816681711721685132943093776703e-02
4.200000000000002065014825802791165187954902648926e-01,-7.022017261330820714348988076380919665098190307617e-01,5.182082653167896513224377486039884388446807861328e-01,1.000000000000000020816681711721685132943093776703e-02
4.300000000000002153832667772803688421845436096191e-01,-6.852258689988054429775843345851171761751174926758e-01,5.387255829651037553063019913679454475641250610352e-01,1.000000000000000020816681711721685132943093776703e-02
4.400000000000002242650509742816211655735969543457e-01,-6.676987219946162177564019657438620924949645996094e-01,5.586498214637511949831605306826531887054443359375e-01,1.000000000000000020816681711721685132943093776703e-02
4.500000000000002331468351712828734889626502990723e-01,-6.496402134207225342876768081623595207929611206055e-01,5.779676307743200069921840622555464506149291992188e-01,1.000000000000000020816681711721685132943093776703e-02
4.600000000000002420286193682841258123517036437988e-01,-6.310704686656521955612220153852831572294235229492e-01,5.966663986856032275696293254441116005182266235352e-01,1.000000000000000020816681711721685132943093776703e-02
4.700000000000002509104035652853781357407569885254e-01,-6.120098014883154080578719913319218903779983520508e-01,6.147342641954811615079279363271780312061309814453e-01,1.000000000000000020816681711721685132943093776703e-02
4.800000000000002597921877622866304591298103332520e-01,-5.924787029718090458629831118742004036903381347656e-01,6.321601305440843754368529516796115785837173461914e-01,1.000000000000000020816681711721685132943093776703e-02
4.900000000000002686739719592878827825188636779785e-01,-5.724978280159198629206684927339665591716766357422e-01,6.489336773751431808321399330452550202608108520508e-01,1.000000000000000020816681711721685132943093776703e-02
5.000000000000002220446049250313080847263336181641e-01,-5.520879793207069674565445893676951527595520019531e-01,6.650453715098285645268560983822681009769439697266e-01,1.000000000000000020816681711721685132943093776703e-02
