time,u0,u1,tau
0.000000000000000000000000000000000000000000000000e+00,-5.000000000000000000000000000000000000000000000000e-01,4.000000000000001332267629550187848508358001708984e-01,1.000000000000000020816681711721685132943093776703e-02
1.000000000000000020816681711721685132943093776703e-02,-4.932046179638668315092786542663816362619400024414e-01,4.079490330447685941805957554606720805168151855469e-01,1.000000000000000020816681711721685132943093776703e-02
2.000000000000000041633363423443370265886187553406e-02,-4.862827162520977353210582805331796407699584960938e-01,4.157817059565384054664605173456948250532150268555e-01,1.000000000000000020816681711721685132943093776703e-02
2.999999999999999888977697537484345957636833190918e-02,-4.792363736256581296935053160268580541014671325684e-01,4.234961589877592746944401369546540081501007080078e-01,1.000000000000000020816681711721685132943093776703e-02
4.000000000000000083266726846886740531772375106812e-02,-4.720676901087785815036568237701430916786193847656e-01,4.310905777195070953666800050996243953704833984375e-01,1.000000000000000020816681711721685132943093776703e-02
5.000000000000000277555756156289135105907917022705e-02,-4.647787859838463653261442232178524136543273925781e-01,4.385631932964488832737970369635149836540222167969e-01,1.000000000000000020816681711721685132943093776703e-02
6.000000000000000471844785465691529680043458938599e-02,-4.573718007872394908375213162798900157213211059570e-01,4.459122826248694271278338874253677204251289367676e-01,1.000000000000000020816681711721685132943093776703e-02
7.000000000000000666133814775093924254179000854492e-02,-4.498488923063211908370817582181189209222793579102e-01,4.531361685326915078597664887638529762625694274902e-01,1.000000000000000020816681711721685132943093776703e-02
8.000000000000000166533453693773481063544750213623e-02,-4.422122355779407043563367096794536337256431579590e-01,4.602332198904053317534135203459300100803375244141e-01,1.000000000000000020816681711721685132943093776703e-02
8.999999999999999666933092612453037872910499572754e-02,-4.344640218889246341404941631481051445007324218750e-01,4.672018516918235997437136575172189623117446899414e-01,1.000000000000000020816681711721685132943093776703e-02
9.999999999999999167332731531132594682276248931885e-02,-4.266064577791839340648039069492369890213012695312e-01,4.740405250935951775304033617430832237005233764648e-01,1.000000000000000020816681711721685132943093776703e-02
1.099999999999999866773237044981215149164199829102e-01,-4.186417640482075208652190667635295540094375610352e-01,4.807477474124420835366322535264771431684494018555e-01,1.000000000000000020816681711721685132943093776703e-02
1.199999999999999816813200936849170830100774765015e-01,-4.105721747658599984909244540176587179303169250488e-01,4.873220720791354154677321730559924617409706115723e-01,1.000000000000000020816681711721685132943093776703e-02
1.299999999999999766853164828717126511037349700928e-01,-4.023999362885490871377669463981874287128448486328e-01,4.937620985482896740492719800386112183332443237305e-01,1.000000000000000020816681711721685132943093776703e-02
1.399999999999999855671006798729649744927883148193e-01,-3.941273062819747874385711838840506970882415771484e-01,5.000664721631385978284356497169937938451766967773e-01,1.000000000000000020816681711721685132943093776703e-02
1.499999999999999944488848768742172978818416595459e-01,-3.857565527518153070118955838552210479974746704102e-01,5.062338839745518237478449918853584676980972290039e-01,1.000000000000000020816681711721685132943093776703e-02
1.600000000000000033306690738754696212708950042725e-01,-3.772899530838451642722475298796780407428741455078e-01,5.122630705136648199271576231694780290126800537109e-01,1.000000000000000020816681711721685132943093776703e-02
1.700000000000000122124532708767219446599483489990e-01,-3.687297930951135560562192949873860925436019897461e-01,5.181528135176228788694174909323919564485549926758e-01,1.000000000000000020816681711721685132943093776703e-02
1.800000000000000210942374678779742680490016937256e-01,-3.600783660979387512668381532421335577964782714844e-01,5.239019396080794033210281668289098888635635375977e-01,1.000000000000000020816681711721685132943093776703e-02
1.900000000000000299760216648792265914380550384521e-01,-3.513379719785917898455807062418898567557334899902e-01,5.295093199222439261930617249163333326578140258789e-01,1.000000000000000020816681711721685132943093776703e-02
2.000000000000000388578058618804789148271083831787e-01,-3.425109162926517902825196415506070479750633239746e-01,5.349738696964398965150166986859403550624847412109e-01,1.000000000000000020816681711721685132943093776703e-02
2.100000000000000477395900588817312382161617279053e-01,-3.335995093791131460569943101290846243500709533691e-01,5.402945478023098990760786364262457937002182006836e-01,1.000000000000000020816681711721685132943093776703e-02
2.200000000000000566213742558829835616052150726318e-01,-3.246060654954106006186975719174370169639587402344e-01,5.454703562359898283418147002521436661481857299805e-01,1.000000000000000020816681711721685132943093776703e-02
2.300000000000000655031584528842358849942684173584e-01,-3.155329019756022979059650879207765683531761169434e-01,5.505003395607688254642653191694989800453186035156e-01,1.000000000000000020816681711721685132943093776703e-02
2.400000000000000743849426498854882083833217620850e-01,-3.063823384140096361960559079307131469249725341797e-01,5.553835843039512942809210471750702708959579467773e-01,1.000000000000000020816681711721685132943093776703e-02
2.500000000000000555111512312578270211815834045410e-01,-2.971566958766595489827011533634504303336143493652e-01,5.601192183088435916360481314768549054861068725586e-01,1.000000000000000020816681711721685132943093776703e-02
2.600000000000000643929354282590793445706367492676e-01,-2.878582961429043685086526238592341542243957519531e-01,5.647064100429968203087582878652028739452362060547e-01,1.000000000000000020816681711721685132943093776703e-02
2.700000000000000732747196252603316679596900939941e-01,-2.784894609796104703036689897999167442321777343750e-01,5.691443678640510928090634479303844273090362548828e-01,1.000000000000000020816681711721685132943093776703e-02
2.800000000000000821565038222615839913487434387207e-01,-2.690525114503064529891673828387865796685218811035e-01,5.734323392447373546332300975336693227291107177734e-01,1.000000000000000020816681711721685132943093776703e-02
2.900000000000000910382880192628363147377967834473e-01,-2.595497672616650652877012817043578252196311950684e-01,5.775696099588076837250127937295474112033843994141e-01,1.000000000000000020816681711721685132943093776703e-02
3.000000000000000999200722162640886381268501281738e-01,-2.499835461496611732634676172892795875668525695801e-01,5.815555032298740378848833643132820725440979003906e-01,1.000000000000000020816681711721685132943093776703e-02
3.100000000000001088018564132653409615159034729004e-01,-2.403561633076994885627186704368796199560165405273e-01,5.853893788453445878872116736602038145065307617188e-01,1.000000000000000020816681711721685132943093776703e-02
3.200000000000001176836406102665932849049568176270e-01,-2.306699308589419683546140049656969495117664337158e-01,5.890706322378486126112306919822003692388534545898e-01,1.000000000000000020816681711721685132943093776703e-02
3.300000000000001265654248072678456082940101623535e-01,-2.209271573749845840595185109123121947050094604492e-01,5.925986935367385521900018829910550266504287719727e-01,1.000000000000000020816681711721685132943093776703e-02
3.400000000000001354472090042690979316830635070801e-01,-2.111301474429379820829666414283565245568752288818e-01,5.959730265924474412742029016953893005847930908203e-01,1.000000000000000020816681711721685132943093776703e-02
3.500000000000001443289932012703502550721168518066e-01,-2.012812012828569530054068081881268881261348724365e-01,5.991931279766633533512276699184440076351165771484e-01,1.000000000000000020816681711721685132943093776703e-02
3.600000000000001532107773982716025784611701965332e-01,-1.913826144173380872093304105874267406761646270752e-01,6.022585259614525732274614711059257388114929199219e-01,1.000000000000000020816681711721685132943093776703e-02
3.700000000000001620925615952728549018502235412598e-01,-1.814366773949674938037901483767200261354446411133e-01,6.051687794806281939230530042550526559352874755859e-01,1.000000000000000020816681711721685132943093776703e-02
3.800000000000001709743457922741072252392768859863e-01,-1.714456755691481926184849271521670743823051452637e-01,6.079234770768111584260395829915069043636322021484e-01,1.000000000000000020816681711721685132943093776703e-02
3.900000000000001798561299892753595486283302307129e-01,-1.614118889336726425653978367336094379425048828125e-01,6.105222358377696556530622729042079299688339233398e-01,1.000000000000000020816681711721685132943093776703e-02
4.000000000000001887379141862766118720173835754395e-01,-1.513375920162301213611755201782216317951679229736e-01,6.129647003257508997009495033125858753919601440430e-01,1.000000000000000020816681711721685132943093776703e-02
4.100000000000001976196983832778641954064369201660e-01,-1.412250538308514047347586028990917839109897613525e-01,6.152505415036332303557742307020816951990127563477e-01,1.000000000000000020816681711721685132943093776703e-02
4.200000000000002065014825802791165187954902648926e-01,-1.310765378900962119246287329588085412979125976562e-01,6.173794556618251716528789074800442904233932495117e-01,1.000000000000000020816681711721685132943093776703e-02
4.300000000000002153832667772803688421845436096191e-01,-1.208943022775821329872769638313911855220794677734e-01,6.193511633499270141456349847430828958749771118164e-01,1.000000000000000020816681711721685132943093776703e-02
4.400000000000002242650509742816211655735969543457e-01,-1.106805997812392028389893994244630448520183563232e-01,6.211654083172394313905328999680932611227035522461e-01,1.000000000000000020816681711721685132943093776703e-02
4.500000000000002331468351712828734889626502990723e-01,-1.004376780874511321250963646889431402087211608887e-01,6.228219564662639262664356465393211692571640014648e-01,1.000000000000000020816681711721685132943093776703e-02
4.600000000000002420286193682841258123517036437988e-01,-9.016778003601537416766831256609293632209300994873e-02,6.243205948233805369085303027532063424587249755859e-01,1.000000000000000020816681711721685132943093776703e-02
4.700000000000002509104035652853781357407569885254e-01,-7.987314393561860403902841198942041955888271331787e-02,6.256611305309169868138496894971467554569244384766e-01,1.000000000000000020816681711721685132943093776703e-02
4.800000000000002597921877622866304591298103332520e-01,-6.955600393928407232380095592816360294818878173828e-02,6.268433898648377855522539903176948428153991699219e-01,1.000000000000000020816681711721685132943093776703e-02
4.900000000000002686739719592878827825188636779785e-01,-5.921859047900261685537515177202294580638408660889e-02,6.278672172822777897138735170301515609025955200195e-01,1.000000000000000020816681711721685132943093776703e-02
5.000000000000002220446049250313080847263336181641e-01,-4.886313075851130005577971360253286547958850860596e-02,6.287324745031310779808109145960770547389984130859e-01,1.000000000000000020816681711721685132943093776703e-02
