time,u0,u1,tau
0.000000000000000000000000000000000000000000000000e+00,8.000000000000000444089209850062616169452667236328e-01,-6.999999999999999555910790149937383830547332763672e-01,1.000000000000000020816681711721685132943093776703e-02
1.000000000000000020816681711721685132943093776703e-02,7.647215645402340999936541265924461185932159423828e-01,-7.321490301432023173333618615288287401199340820312e-01,1.000000000000000020816681711721685132943093776703e-02
2.000000000000000041633363423443370265886187553406e-02,7.285361919916650830231219515553675591945648193359e-01,-7.623094185433436642540527827804908156394958496094e-01,1.000000000000000020816681711721685132943093776703e-02
2.999999999999999888977697537484345957636833190918e-02,6.915332509346325817745082531473599374294281005859e-01,-7.904871246219191682769178441958501935005187988281e-01,1.000000000000000020816681711721685132943093776703e-02
4.000000000000000083266726846886740531772375106812e-02,6.538005415766215966399954595544841140508651733398e-01,-8.166917451068397282298860773153137415647506713867e-01,1.000000000000000020816681711721685132943093776703e-02
5.000000000000000277555756156289135105907917022705e-02,6.154241495351346902253908410784788429737091064453e-01,-8.409365168551865554746882480685599148273468017578e-01,1.000000000000000020816681711721685132943093776703e-02
6.000000000000000471844785465691529680043458938599e-02,5.764882693474073782624600426061078906059265136719e-01,-8.632382507338980381916826445376500487327575683594e-01,1.000000000000000020816681711721685132943093776703e-02
7.000000000000000666133814775093924254179000854492e-02,5.370750118282082707921176734089385718107223510742e-01,-8.836172005812356067266932768689002841711044311523e-01,1.000000000000000020816681711721685132943093776703e-02
8.000000000000000166533453693773481063544750213623e-02,4.972642084343532054013792276236927136778831481934e-01,-9.020968736607696270013434514112304896116256713867e-01,1.000000000000000020816681711721685132943093776703e-02
8.999999999999999666933092612453037872910499572754e-02,4.571332243682603713175183202110929414629936218262e-01,-9.187037908804668306927965204522479325532913208008e-01,1.000000000000000020816681711721685132943093776703e-02
9.999999999999999167332731531132594682276248931885e-02,4.167567903789373695566666810918832197785377502441e-01,-9.334672063354512161481579823885113000869750976562e-01,1.000000000000000020816681711721685132943093776703e-02
1.099999999999999866773237044981215149164199829102e-01,3.762068612249933607927232515066862106323242187500e-01,-9.464187964459238600056778523139655590057373046875e-01,1.000000000000000020816681711721685132943093776703e-02
1.199999999999999816813200936849170830100774765015e-01,3.355525066772055975405919525655917823314666748047e-01,-9.575923291432014705648612107324879616498947143555e-01,1.000000000000000020816681711721685132943093776703e-02
1.299999999999999766853164828717126511037349700928e-01,2.948598388727024510735930107330204918980598449707e-01,-9.670233232773286502492737781722098588943481445312e-01,1.000000000000000020816681711721685132943093776703e-02
1.399999999999999855671006798729649744927883148193e-01,2.541919778846959410145700530847534537315368652344e-01,-9.747487077669797495005354903696570545434951782227e-01,1.000000000000000020816681711721685132943093776703e-02
1.499999999999999944488848768742172978818416595459e-01,2.136090556134550011435635497036855667829513549805e-01,-9.808064890807144386997151741525158286094665527344e-01,1.000000000000000020816681711721685132943093776703e-02
1.600000000000000033306690738754696212708950042725e-01,1.731682565842115884002794246043777093291282653809e-01,-9.852354345202325447417024406604468822479248046875e-01,1.000000000000000020816681711721685132943093776703e-02
1.700000000000000122124532708767219446599483489990e-01,1.329238929815799163947076522163115441799163818359e-01,-9.880747775545937194863199692917987704277038574219e-01,1.000000000000000020816681711721685132943093776703e-02
1.800000000000000210942374678779742680490016937256e-01,9.292751026393977764605836000555427744984626770020e-02,-9.893639502002721242135407919704448431730270385742e-01,1.000000000000000020816681711721685132943093776703e-02
1.900000000000000299760216648792265914380550384521e-01,5.322801897577768975855505573235859628766775131226e-02,-9.891423462116858411619091384636703878641128540039e-01,1.000000000000000020816681711721685132943093776703e-02
2.000000000000000388578058618804789148271083831787e-01,1.387184789089121461636011645168764516711235046387e-02,-9.874491176820440196948425182199571281671524047852e-01,1.000000000000000020816681711721685132943093776703e-02
2.100000000000000477395900588817312382161617279053e-01,-2.509688665244973193590993787438492290675640106201e-02,-9.843230065828943997630062767711933702230453491211e-01,1.000000000000000020816681711721685132943093776703e-02
2.200000000000000566213742558829835616052150726318e-01,-6.363620045204987363263171573635190725326538085938e-02,-9.798022118087299503486065077595412731170654296875e-01,1.000000000000000020816681711721685132943093776703e-02
2.300000000000000655031584528842358849942684173584e-01,-1.017060553418541735126723324356134980916976928711e-01,-9.739242914469311562797315673378761857748031616211e-01,1.000000000000000020816681711721685132943093776703e-02
2.400000000000000743849426498854882083833217620850e-01,-1.392681722673863586869913433474721387028694152832e-01,-9.667260992624330251388187207339797168970108032227e-01,1.000000000000000020816681711721685132943093776703e-02
2.500000000000000555111512312578270211815834045410e-01,-1.762858482255634795521359592385124415159225463867e-01,-9.582437537650042580494869071117136627435684204102e-01,1.000000000000000020816681711721685132943093776703e-02
2.600000000000000643929354282590793445706367492676e-01,-2.127237813933310905945006652473239228129386901855e-01,-9.485126377060285607356604486994910985231399536133e-01,1.000000000000000020816681711721685132943093776703e-02
2.700000000000000732747196252603316679596900939941e-01,-2.485479083443050130064477798441657796502113342285e-01,-9.375674254209073188448542168771382421255111694336e-01,1.000000000000000020816681711721685132943093776703e-02
2.800000000000000821565038222615839913487434387207e-01,-2.837252567797621249923167852102778851985931396484e-01,-9.254421350823277547803513698454480618238449096680e-01,1.000000000000000020816681711721685132943093776703e-02
2.900000000000000910382880192628363147377967834473e-01,-3.182238166897145004163860448898049071431159973145e-01,-9.121702026493259118922196648782119154930114746094e-01,1.000000000000000020816681711721685132943093776703e-02
3.000000000000000999200722162640886381268501281738e-01,-3.520124323187771020471359406656119972467422485352e-01,-8.977845740797030238411480240756645798683166503906e-01,1.000000000000000020816681711721685132943093776703e-02
3.100000000000001088018564132653409615159034729004e-01,-3.850607167459110802276711638114647939801216125488e-01,-8.823178122134451850655523230670951306819915771484e-01,1.000000000000000020816681711721685132943093776703e-02
3.200000000000001176836406102665932849049568176270e-01,-4.173389903021400004767826885654358193278312683105e-01,-8.658022146292092546815410969429649412631988525391e-01,1.000000000000000020816681711721685132943093776703e-02
3.300000000000001265654248072678456082940101623535e-01,-4.488182434515902152760702392697567120194435119629e-01,-8.482699387237514487836165244516450911760330200195e-01,1.000000000000000020816681711721685132943093776703e-02
3.400000000000001354472090042690979316830635070801e-01,-4.794701241554374937514637622371083125472068786621e-01,-8.297531302664122865309082044404931366443634033203e-01,1.000000000000000020816681711721685132943093776703e-02
3.500000000000001443289932012703502550721168518066e-01,-5.092669491340269249946004492812789976596832275391e-01,-8.102840517398721686959106591530144214630126953125e-01,1.000000000000000020816681711721685132943093776703e-02
3.600000000000001532107773982716025784611701965332e-01,-5.381817378501284609981780704401899129152297973633e-01,-7.898952068975726437116691158735193312168121337891e-01,1.000000000000000020816681711721685132943093776703e-02
3.700000000000001620925615952728549018502235412598e-01,-5.661882674686866678825936105567961931228637695312e-01,-7.686194581506451406482938182307407259941101074219e-01,1.000000000000000020816681711721685132943093776703e-02
3.800000000000001709743457922741072252392768859863e-01,-5.932611465200700040512060695618856698274612426758e-01,-7.464901336452378632912996181403286755084991455078e-01,1.000000000000000020816681711721685132943093776703e-02
3.900000000000001798561299892753595486283302307129e-01,-6.193759045205484703444653860060498118400573730469e-01,-7.235411212054431162599144045088905841112136840820e-01,1.000000000000000020816681711721685132943093776703e-02
4.000000000000001887379141862766118720173835754395e-01,-6.445090944017635159468682104488834738731384277344e-01,-6.998069466958320994365294609451666474342346191406e-01,1.000000000000000020816681711721685132943093776703e-02
4.100000000000001976196983832778641954064369201660e-01,-6.686384042858721787894182853051461279392242431641e-01,-6.753228347961500732665740542870480567216873168945e-01,1.000000000000000020816681711721685132943093776703e-02
4.200000000000002065014825802791165187954902648926e-01,-6.917427749285397498013594486110378056764602661133e-01,-6.501247506709078027853365711052902042865753173828e-01,1.000000000000000020816681711721685132943093776703e-02
4.300000000000002153832667772803688421845436096191e-01,-7.138025190486423365854307121480815112590789794922e-01,-6.242494215469478469060504721710458397865295410156e-01,1.000000000000000020816681711721685132943093776703e-02
4.400000000000002242650509742816211655735969543457e-01,-7.347994387778915559295001003192737698554992675781e-01,-5.977343377679383840117566251137759536504745483398e-01,1.000000000000000020816681711721685132943093776703e-02
4.500000000000002331468351712828734889626502990723e-01,-7.547169375970737004166721817455254495143890380859e-01,-5.706177334589869198921974202676210552453994750977e-01,1.000000000000000020816681711721685132943093776703e-02
4.600000000000002420286193682841258123517036437988e-01,-7.735401233742145166161208180710673332214355468750e-01,-5.429385474883090534348184519330970942974090576172e-01,1.000000000000000020816681711721685132943093776703e-02
4.700000000000002509104035652853781357407569885254e-01,-7.912558994741973883435548486886546015739440917969e-01,-5.147363659366486210444691096199676394462585449219e-01,1.000000000000000020816681711721685132943093776703e-02
4.800000000000002597921877622866304591298103332520e-01,-8.078530413544913191259411178180016577243804931641e-01,-4.860513477600252318922002814360894262790679931641e-01,1.000000000000000020816681711721685132943093776703e-02
4.900000000000002686739719592878827825188636779785e-01,-8.233222565786362245887630706420168280601501464844e-01,-4.569241357402612502269789729325566440820693969727e-01,1.000000000000000020816681711721685132943093776703e-02
5.000000000000002220446049250313080847263336181641e-01,-8.376562267457371424583811858610715717077255249023e-01,-4.273957551463808957059598014893708750605583190918e-01,1.000000000000000020816681711721685132943093776703e-02
