time,u0,u1,tau
0.000000000000000000000000000000000000000000000000e+00,-3.999999999999999111821580299874767661094665527344e-01,1.000000000000000000000000000000000000000000000000e+00,1.000000000000000020816681711721685132943093776703e-02
1.000000000000000020816681711721685132943093776703e-02,-3.516980629890478216026394875370897352695465087891e-01,1.011978459911149652583617353229783475399017333984e+00,1.000000000000000020816681711721685132943093776703e-02
2.000000000000000041633363423443370265886187553406e-02,-3.035732296614743197515906558692222461104393005371e-01,1.021677324452599622262027878605294972658157348633e+00,1.000000000000000020816681711721685132943093776703e-02
2.999999999999999888977697537484345957636833190918e-02,-2.557045896599448031594192798365838825702667236328e-01,1.029172333397367911089759218157269060611724853516e+00,1.000000000000000020816681711721685132943093776703e-02
4.000000000000000083266726846886740531772375106812e-02,-2.081658234304541721382264540807227604091167449951e-01,1.034538244780754734364336400176398456096649169922e+00,1.000000000000000020816681711721685132943093776703e-02
5.000000000000000277555756156289135105907917022705e-02,-1.610254757586354612541867936670314520597457885742e-01,1.037848473497014145650041427870746701955795288086e+00,1.000000000000000020816681711721685132943093776703e-02
6.000000000000000471844785465691529680043458938599e-02,-1.143472747578949677560444797563832253217697143555e-01,1.039174783371286325817095530510414391756057739258e+00,1.000000000000000020816681711721685132943093776703e-02
7.000000000000000666133814775093924254179000854492e-02,-6.819048488818595099569819240059587173163890838623e-02,1.038587037854914907342163132852874696254730224609e+00,1.000000000000000020816681711721685132943093776703e-02
8.000000000000000166533453693773481063544750213623e-02,-2.261028256150254128753473992219369392842054367065e-02,1.036153011711226312741018773522228002548217773438e+00,1.000000000000000020816681711721685132943093776703e-02
8.999999999999999666933092612453037872910499572754e-02,2.234185672302500813568570947609259746968746185303e-02,1.031938263795125099164806670160032808780670166016e+00,1.000000000000000020816681711721685132943093776703e-02
9.999999999999999167332731531132594682276248931885e-02,6.661777009112529457368623297952581197023391723633e-02,1.026006069223835526216248581476975232362747192383e+00,1.000000000000000020816681711721685132943093776703e-02
1.099999999999999866773237044981215149164199829102e-01,1.101722273495082116134824445907725021243095397949e-01,1.018417407822364895153555153228808194398880004883e+00,1.000000000000000020816681711721685132943093776703e-02
1.199999999999999816813200936849170830100774765015e-01,1.529625678767730367901833687938051298260688781738e-01,1.009231004640880557943205531046260148286819458008e+00,1.000000000000000020816681711721685132943093776703e-02
1.299999999999999766853164828717126511037349700928e-01,1.949483617589694295357816145042306743562221527100e-01,9.985034175221308982983714486181270331144332885742e-01,1.000000000000000020816681711721685132943093776703e-02
1.399999999999999855671006798729649744927883148193e-01,2.360911014595869494847590885910904034972190856934e-01,9.862891660928808645891763262625318020582199096680e-01,1.000000000000000020816681711721685132943093776703e-02
1.499999999999999944488848768742172978818416595459e-01,2.763539291758948523991534784727264195680618286133e-01,9.726408961207302361628990183817222714424133300781e-01,1.000000000000000020816681711721685132943093776703e-02
1.600000000000000033306690738754696212708950042725e-01,3.157014038897485441736989741912111639976501464844e-01,9.576095728829980835428159480215981602668762207031e-01,1.000000000000000020816681711721685132943093776703e-02
1.700000000000000122124532708767219446599483489990e-01,3.540993109770521618528960061667021363973617553711e-01,9.412446970135411872249164844106417149305343627930e-01,1.000000000000000020816681711721685132943093776703e-02
1.800000000000000210942374678779742680490016937256e-01,3.915145160993243611535774562071310356259346008301e-01,9.235945362113444634388770282384939491748809814453e-01,1.000000000000000020816681711721685132943093776703e-02
1.900000000000000299760216648792265914380550384521e-01,4.279148639670471432339127204613760113716125488281e-01,9.047063662043128839940209218184463679790496826172e-01,1.000000000000000020816681711721685132943093776703e-02
2.000000000000000388578058618804789148271083831787e-01,4.632691214443841465353557396156247705221176147461e-01,8.846267144622244060769844509195536375045776367188e-01,1.000000000000000020816681711721685132943093776703e-02
2.100000000000000477395900588817312382161617279053e-01,4.975469633697724436416365279001183807849884033203e-01,8.634016003483043766308924205077346414327621459961e-01,1.000000000000000020816681711721685132943093776703e-02
2.200000000000000566213742558829835616052150726318e-01,5.307189984137331562052963818132411688566207885742e-01,8.410767656960916882624701429449487477540969848633e-01,1.000000000000000020816681711721685132943093776703e-02
2.300000000000000655031584528842358849942684173584e-01,5.627568313065614002965730833238922059535980224609e-01,8.176978902043939845256659282313194125890731811523e-01,1.000000000000000020816681711721685132943093776703e-02
2.400000000000000743849426498854882083833217620850e-01,5.936331568717005957580568065168336033821105957031e-01,7.933107865636470634740362584125250577926635742188e-01,1.000000000000000020816681711721685132943093776703e-02
2.500000000000000555111512312578270211815834045410e-01,6.233218805260867245721101426170207560062408447266e-01,7.679615708634788262543224846012890338897705078125e-01,1.000000000000000020816681711721685132943093776703e-02
2.600000000000000643929354282590793445706367492676e-01,6.517982592878237557698639648151583969593048095703e-01,7.416968045796232811284198760404251515865325927734e-01,1.000000000000000020816681711721685132943093776703e-02
2.700000000000000732747196252603316679596900939941e-01,6.790390568933845072407962106808554381132125854492e-01,7.145636052874455579342338751303032040596008300781e-01,1.000000000000000020816681711721685132943093776703e-02
2.800000000000000821565038222615839913487434387207e-01,7.050227063951428618793215719051659107208251953125e-01,6.866097241805279027815345216367859393358230590820e-01,1.000000000000000020816681711721685132943093776703e-02
2.900000000000000910382880192628363147377967834473e-01,7.297294736014243721200500658596865832805633544922e-01,6.578835894599236455704271975264418870210647583008e-01,1.000000000000000020816681711721685132943093776703e-02
3.000000000000000999200722162640886381268501281738e-01,7.531416149410458116264521777338813990354537963867e-01,6.284343156703271482399486558279022574424743652344e-01,1.000000000000000020816681711721685132943093776703e-02
3.100000000000001088018564132653409615159034729004e-01,7.752435237762749231649195280624553561210632324219e-01,5.983116800564795001449169831175822764635086059570e-01,1.000000000000000020816681711721685132943093776703e-02
3.200000000000001176836406102665932849049568176270e-01,7.960218598337773787676496795029379427433013916016e-01,5.675660679574533462599106314883101731538772583008e-01,1.000000000000000020816681711721685132943093776703e-02
3.300000000000001265654248072678456082940101623535e-01,8.154656572423994997933505146647803485393524169922e-01,5.362483901095553839866170164896175265312194824219e-01,1.000000000000000020816681711721685132943093776703e-02
3.400000000000001354472090042690979316830635070801e-01,8.335664076198913141624302625132258981466293334961e-01,5.044099754555545489509427170560229569673538208008e-01,1.000000000000000020816681711721685132943093776703e-02
3.500000000000001443289932012703502550721168518066e-01,8.503181156913479643577602473669685423374176025391e-01,4.721024436301499149770677377091487869620323181152e-01,1.000000000000000020816681711721685132943093776703e-02
3.600000000000001532107773982716025784611701965332e-01,8.657173260002054560047213271900545805692672729492e-01,4.393775616887585777625702121440554037690162658691e-01,1.000000000000000020816681711721685132943093776703e-02
3.700000000000001620925615952728549018502235412598e-01,8.797631203381398590224193867470603436231613159180e-01,4.062870898582940926146989113476593047380447387695e-01,1.000000000000000020816681711721685132943093776703e-02
3.800000000000001709743457922741072252392768859863e-01,8.924570865268051100827051413943991065025329589844e-01,3.728826211143141389214861192158423364162445068359e-01,1.000000000000000020816681711721685132943093776703e-02
3.900000000000001798561299892753595486283302307129e-01,9.038032600920475889694216675707139074802398681641e-01,3.392154192382612620804138714447617530822753906250e-01,1.000000000000000020816681711721685132943093776703e-02
4.000000000000001887379141862766118720173835754395e-01,9.138080411486968479550796473631635308265686035156e-01,3.053362596996537225990664410346653312444686889648e-01,1.000000000000000020816681711721685132943093776703e-02
4.100000000000001976196983832778641954064369201660e-01,9.224800894396670836172802410146687179803848266602e-01,2.712952772659952271894212572078686207532882690430e-01,1.000000000000000020816681711721685132943093776703e-02
4.200000000000002065014825802791165187954902648926e-01,9.298302009354579844568888802314177155494689941406e-01,2.371418236974983662079807800182607024908065795898e-01,1.000000000000000020816681711721685132943093776703e-02
4.300000000000002153832667772803688421845436096191e-01,9.358711696973198712612429517321288585662841796875e-01,2.029243382664363826162201576153165660798549652100e-01,1.000000000000000020816681711721685132943093776703e-02
4.400000000000002242650509742816211655735969543457e-01,9.406176388458574733064665451820474117994308471680e-01,1.686902331841660107603075857696239836513996124268e-01,1.000000000000000020816681711721685132943093776703e-02
4.500000000000002331468351712828734889626502990723e-01,9.440859444699621905172648439474869519472122192383e-01,1.344857953529343397303108531559701077640056610107e-01,1.000000000000000020816681711721685132943093776703e-02
4.600000000000002420286193682841258123517036437988e-01,9.462939561768829443977324444858822971582412719727e-01,1.003561052115382323801640040983329527080059051514e-01,1.000000000000000020816681711721685132943093776703e-02
4.700000000000002509104035652853781357407569885254e-01,9.472609177442208316932692468981258571147918701172e-01,6.634497283647775023318615694734035059809684753418e-02,1.000000000000000020816681711721685132943093776703e-02
4.800000000000002597921877622866304591298103332520e-01,9.470072910112492525769312123884446918964385986328e-01,3.249489091129574569460913835428073070943355560303e-02,1.000000000000000020816681711721685132943093776703e-02
4.900000000000002686739719592878827825188636779785e-01,9.455546057626740275026122617418877780437469482422e-01,-1.152996300806986840203904876034357585012912750244e-03,1.000000000000000020816681711721685132943093776703e-02
5.000000000000002220446049250313080847263336181641e-01,9.429253179339344148601753659022506326436996459961e-01,-3.455890924414566772737700262041471432894468307495e-02,1.000000000000000020816681711721685132943093776703e-02
