time,u0,u1,tau
0.000000000000000000000000000000000000000000000000e+00,3.000000000000000444089209850062616169452667236328e-01,-1.000000000000000000000000000000000000000000000000e+00,1.000000000000000020816681711721685132943093776703e-02
1.000000000000000020816681711721685132943093776703e-02,2.551148991966815104959209747903514653444290161133e-01,-1.007613168929997415901311796915251761674880981445e+00,1.000000000000000020816681711721685132943093776703e-02
2.000000000000000041633363423443370265886187553406e-02,2.104483071687056616738686898315791040658950805664e-01,-1.013289068989100760731503214628901332616806030273e+00,1.000000000000000020816681711721685132943093776703e-02
2.999999999999999888977697537484345957636833190918e-02,1.660650686754971960823468180024065077304840087891e-01,-1.017085614106070012852001127612311393022537231445e+00,1.000000000000000020816681711721685132943093776703e-02
4.000000000000000083266726846886740531772375106812e-02,1.220259885902285762471208840906911063939332962036e-01,-1.019060189968475027555427914194297045469284057617e+00,1.000000000000000020816681711721685132943093776703e-02
5.000000000000000277555756156289135105907917022705e-02,7.838806654550292685179613272339338436722755432129e-02,-1.019269365332776899890632194001227617263793945312e+00,1.000000000000000020816681711721685132943093776703e-02
6.000000000000000471844785465691529680043458938599e-02,3.520475871791346050843074522163078654557466506958e-02,-1.017768653221460262159325793618336319923400878906e+00,1.000000000000000020816681711721685132943093776703e-02
7.000000000000000666133814775093924254179000854492e-02,-7.473741666472695499567890919934143312275409698486e-03,-1.014612323379837865999775203817989677190780639648e+00,1.000000000000000020816681711721685132943093776703e-02
8.000000000000000166533453693773481063544750213623e-02,-4.960021336402177516422540293206111527979373931885e-02,-1.009853265830356727761341062432620674371719360352e+00,1.000000000000000020816681711721685132943093776703e-02
8.999999999999999666933092612453037872910499572754e-02,-9.113011355659980661236829746485454961657524108887e-02,-1.003542904091956566858812038844916969537734985352e+00,1.000000000000000020816681711721685132943093776703e-02
9.999999999999999167332731531132594682276248931885e-02,-1.320212890299469477017879626146168448030948638916e-01,-9.957311556006970265642053163901437073945999145508e-01,1.000000000000000020816681711721685132943093776703e-02
1.099999999999999866773237044981215149164199829102e-01,-1.722336987451134615589865006768377497792243957520e-01,-9.864664360456423253253888105973601341247558593750e-01,1.000000000000000020816681711721685132943093776703e-02
1.199999999999999816813200936849170830100774765015e-01,-2.117291537144962432215322678530355915427207946777e-01,-9.757957036903153191786941533791832625865936279297e-01,1.000000000000000020816681711721685132943093776703e-02
1.299999999999999766853164828717126511037349700928e-01,-2.504710792947347219872256118833320215344429016113e-01,-9.637645392561878798787233790790196508169174194336e-01,1.000000000000000020816681711721685132943093776703e-02
1.399999999999999855671006798729649744927883148193e-01,-2.884243041746811786474324890150455757975578308105e-01,-9.504172565756031643147139220673125237226486206055e-01,1.000000000000000020816681711721685132943093776703e-02
1.499999999999999944488848768742172978818416595459e-01,-3.255548794797721301463866439007688313722610473633e-01,-9.357970389568542879388246547023300081491470336914e-01,1.000000000000000020816681711721685132943093776703e-02
1.600000000000000033306690738754696212708950042725e-01,-3.618299305421261991000392299611121416091918945312e-01,-9.199460960287682009806076166569255292415618896484e-01,1.000000000000000020816681711721685132943093776703e-02
1.700000000000000122124532708767219446599483489990e-01,-3.972175430042557686682869189098710194230079650879e-01,-9.029058357362030884374348715937230736017227172852e-01,1.000000000000000020816681711721685132943093776703e-02
1.800000000000000210942374678779742680490016937256e-01,-4.316866840389834703017868378083221614360809326172e-01,-8.847170461364439741913656689575873315334320068359e-01,1.000000000000000020816681711721685132943093776703e-02
1.900000000000000299760216648792265914380550384521e-01,-4.652071585861169422670968742750119417905807495117e-01,-8.654200816988327771284161826770287007093429565430e-01,1.000000000000000020816681711721685132943093776703e-02
2.000000000000000388578058618804789148271083831787e-01,-4.977495996375485565188512282475130632519721984863e-01,-8.450550489385528774022304787649773061275482177734e-01,1.000000000000000020816681711721685132943093776703e-02
2.100000000000000477395900588817312382161617279053e-01,-5.292854907601244329740097782632801681756973266602e-01,-8.236619864246683686559435955132357776165008544922e-01,1.000000000000000020816681711721685132943093776703e-02
2.200000000000000566213742558829835616052150726318e-01,-5.597872182469623147937909379834309220314025878906e-01,-8.012810344971582621198535889561753720045089721680e-01,1.000000000000000020816681711721685132943093776703e-02
2.300000000000000655031584528842358849942684173584e-01,-5.892281495532781798729615729826036840677261352539e-01,-7.779525904116321166625880323408637195825576782227e-01,1.000000000000000020816681711721685132943093776703e-02
2.400000000000000743849426498854882083833217620850e-01,-6.175827340248813968059948820155113935470581054688e-01,-7.537174451050383527928033799980767071247100830078e-01,1.000000000000000020816681711721685132943093776703e-02
2.500000000000000555111512312578270211815834045410e-01,-6.448266213898029564077774011821020394563674926758e-01,-7.286168983385817865539024751342367380857467651367e-01,1.000000000000000020816681711721685132943093776703e-02
2.600000000000000643929354282590793445706367492676e-01,-6.709367930784736477889396155660506337881088256836e-01,-7.026928496181097383299629655084572732448577880859e-01,1.000000000000000020816681711721685132943093776703e-02
2.700000000000000732747196252603316679596900939941e-01,-6.958917011848073652657831189571879804134368896484e-01,-6.759878630049396264212191454134881496429443359375e-01,1.000000000000000020816681711721685132943093776703e-02
2.800000000000000821565038222615839913487434387207e-01,-7.196714097936971477054157730890437960624694824219e-01,-6.485452046936734937787605304038152098655700683594e-01,1.000000000000000020816681711721685132943093776703e-02
2.900000000000000910382880192628363147377967834473e-01,-7.422577334871546250738560956961009651422500610352e-01,-6.204088530253137889758363598957657814025878906250e-01,1.000000000000000020816681711721685132943093776703e-02
3.000000000000000999200722162640886381268501281738e-01,-7.636343681008480599459176119125913828611373901367e-01,-5.916234813975405071317936744890175759792327880859e-01,1.000000000000000020816681711721685132943093776703e-02
3.100000000000001088018564132653409615159034729004e-01,-7.837870092256032927835462942312005907297134399414e-01,-5.622344153006446632048209721688181161880493164062e-01,1.000000000000000020816681711721685132943093776703e-02
3.200000000000001176836406102665932849049568176270e-01,-8.027034545164275503026374281034804880619049072266e-01,-5.322875654182955829085699406277853995561599731445e-01,1.000000000000000020816681711721685132943093776703e-02
3.300000000000001265654248072678456082940101623535e-01,-8.203736865590400828551764789153821766376495361328e-01,-5.018293393596005014245520214899443089962005615234e-01,1.000000000000000020816681711721685132943093776703e-02
3.400000000000001354472090042690979316830635070801e-01,-8.367899338189350721961545787053182721138000488281e-01,-4.709065351089465889522500674502225592732429504395e-01,1.000000000000000020816681711721685132943093776703e-02
3.500000000000001443289932012703502550721168518066e-01,-8.519467080249452095586093491874635219573974609375e-01,-4.395662196742778360381009861157508566975593566895e-01,1.000000000000000020816681711721685132943093776703e-02
3.600000000000001532107773982716025784611701965332e-01,-8.658408171809033326837834465550258755683898925781e-01,-4.078555966706600699467344384174793958663940429688e-01,1.000000000000000020816681711721685132943093776703e-02
3.700000000000001620925615952728549018502235412598e-01,-8.784713542190987212165964592713862657546997070312e-01,-3.758218666893324844124890660168603062629699707031e-01,1.000000000000000020816681711721685132943093776703e-02
3.800000000000001709743457922741072252392768859863e-01,-8.898396620748073582163328865135554224252700805664e-01,-3.435120842753566217098182278277818113565444946289e-01,1.000000000000000020816681711721685132943093776703e-02
3.900000000000001798561299892753595486283302307129e-01,-8.999492766443817348687161938869394361972808837891e-01,-3.109730151787040708377674036455573514103889465332e-01,1.000000000000000020816681711721685132943093776703e-02
4.000000000000001887379141862766118720173835754395e-01,-9.088058496687452247897454071789979934692382812500e-01,-2.782509972692791544446322404837701469659805297852e-01,1.000000000000000020816681711721685132943093776703e-02
4.100000000000001976196983832778641954064369201660e-01,-9.164170540453092650423627674172166734933853149414e-01,-2.453918081355708213919797344715334475040435791016e-01,1.000000000000000020816681711721685132943093776703e-02
4.200000000000002065014825802791165187954902648926e-01,-9.227924744071475116058422827336471527814865112305e-01,-2.124405419419373164391373620674130506813526153564e-01,1.000000000000000020816681711721685132943093776703e-02
4.300000000000002153832667772803688421845436096191e-01,-9.279434860183088940033258040784858167171478271484e-01,-1.794414976248806525838119796389946714043617248535e-01,1.000000000000000020816681711721685132943093776703e-02
4.400000000000002242650509742816211655735969543457e-01,-9.318831251238899326949649548623710870742797851562e-01,-1.464380799878333139218966607586480677127838134766e-01,1.000000000000000020816681711721685132943093776703e-02
4.500000000000002331468351712828734889626502990723e-01,-9.346259538731022109558921329153236001729965209961e-01,-1.134727147292885762741576627377071417868137359619e-01,1.000000000000000020816681711721685132943093776703e-02
4.600000000000002420286193682841258123517036437988e-01,-9.361879228167109268099466135026887059211730957031e-01,-8.058677793042229309250501501082908362150192260742e-02,1.000000000000000020816681711721685132943093776703e-02
4.700000000000002509104035652853781357407569885254e-01,-9.365862337826783567962252163852099329233169555664e-01,-4.782054005240347904770459308565477840602397918701e-02,1.000000000000000020816681711721685132943093776703e-02
4.800000000000002597921877622866304591298103332520e-01,-9.358392056724124108413320755062159150838851928711e-01,-1.521312406357679114510261797477141954004764556885e-02,1.000000000000000020816681711721685132943093776703e-02
4.900000000000002686739719592878827825188636779785e-01,-9.339661454114136507342891491134651005268096923828e-01,1.719752305777039885770207661153108347207307815552e-02,1.000000000000000020816681711721685132943093776703e-02
5.000000000000002220446049250313080847263336181641e-01,-9.309872259482208090020094459760002791881561279297e-01,4.937464651210991123386762069458200130611658096313e-02,1.000000000000000020816681711721685132943093776703e-02
