time,u0,u1,tau
0.000000000000000000000000000000000000000000000000e+00,-6.999999999999999555910790149937383830547332763672e-01,5.000000000000000000000000000000000000000000000000e-01,1.000000000000000020816681711721685132943093776703e-02
1.000000000000000020816681711721685132943093776703e-02,-6.841714987563284333660362790396902710199356079102e-01,5.198562853801413918830576221807859838008880615234e-01,1.000000000000000020816681711721685132943093776703e-02
2.000000000000000041633363423443370265886187553406e-02,-6.678209295470649564663290220778435468673706054688e-01,5.391745673508434588683257970842532813549041748047e-01,1.000000000000000020816681711721685132943093776703e-02
2.999999999999999888977697537484345957636833190918e-02,-6.509659611041102023065718640282284468412399291992e-01,5.579421557653460039816195603634696453809738159180e-01,1.000000000000000020816681711721685132943093776703e-02
4.000000000000000083266726846886740531772375106812e-02,-6.336244713471149703210016923549119383096694946289e-01,5.761469987152014748943429367500357329845428466797e-01,1.000000000000000020816681711721685132943093776703e-02
5.000000000000000277555756156289135105907917022705e-02,-6.158145396990417630433967133285477757453918457031e-01,5.937776963171119692930233213701285421848297119141e-01,1.000000000000000020816681711721685132943093776703e-02
6.000000000000000471844785465691529680043458938599e-02,-5.975544374905780165008195581322070211172103881836e-01,6.108235143588561788519086803717073053121566772461e-01,1.000000000000000020816681711721685132943093776703e-02
7.000000000000000666133814775093924254179000854492e-02,-5.788626163117741585395492620591539889574050903320e-01,6.272743973887218160712109238374978303909301757812e-01,1.000000000000000020816681711721685132943093776703e-02
8.000000000000000166533453693773481063544750213623e-02,-5.597576942340641847906113071076106280088424682617e-01,6.431209808302953412351143924752250313758850097656e-01,1.000000000000000020816681711721685132943093776703e-02
8.999999999999999666933092612453037872910499572754e-02,-5.402584398910379448466301255393773317337036132812e-01,6.583546017132119176906712709751445800065994262695e-01,1.000000000000000020816681711721685132943093776703e-02
9.999999999999999167332731531132594682276248931885e-02,-5.203837544704298379016904618765693157911300659180e-01,6.729673076301525558307048413553275167942047119141e-01,1.000000000000000020816681711721685132943093776703e-02
1.099999999999999866773237044981215149164199829102e-01,-5.001526517312556707750559326086658984422683715820e-01,6.869518635603047984616864596318919211626052856445e-01,1.000000000000000020816681711721685132943093776703e-02
1.199999999999999816813200936849170830100774765015e-01,-4.795842362174427830900924618617864325642585754395e-01,7.003017562387163774673126681591384112834930419922e-01,1.000000000000000020816681711721685132943093776703e-02
1.299999999999999766853164828717126511037349700928e-01,-4.586976798913285913172899199707899242639541625977e-01,7.130111957982566694980164356820750981569290161133e-01,1.000000000000000020816681711721685132943093776703e-02
1.399999999999999855671006798729649744927883148193e-01,-4.375121974558986437386920442804694175720214843750e-01,7.250751144648518442537010741943959146738052368164e-01,1.000000000000000020816681711721685132943093776703e-02
1.499999999999999944488848768742172978818416595459e-01,-4.160470206726274433606249658623710274696350097656e-01,7.364891621457013703988536690303590148687362670898e-01,1.000000000000000020816681711721685132943093776703e-02
1.600000000000000033306690738754696212708950042725e-01,-3.943213720115251730291561216290574520826339721680e-01,7.472496988126480221836800410528667271137237548828e-01,1.000000000000000020816681711721685132943093776703e-02
1.700000000000000122124532708767219446599483489990e-01,-3.723544379909828894170686908182688057422637939453e-01,7.573537836470543016531564717297442257404327392578e-01,1.000000000000000020816681711721685132943093776703e-02
1.800000000000000210942374678779742680490016937256e-01,-3.501653425769873373418761275388533249497413635254e-01,7.667991609767333960334667608549352735280990600586e-01,1.000000000000000020816681711721685132943093776703e-02
1.900000000000000299760216648792265914380550384521e-01,-3.277731210142509898908258492156164720654487609863e-01,7.755842430980793844597087627334985882043838500977e-01,1.000000000000000020816681711721685132943093776703e-02
2.000000000000000388578058618804789148271083831787e-01,-3.051966944560068895064830485353013500571250915527e-01,7.837080901360330420502009474148508161306381225586e-01,1.000000000000000020816681711721685132943093776703e-02
2.100000000000000477395900588817312382161617279053e-01,-2.824548457451235283777180029574083164334297180176e-01,7.911703871495817663728189472749363631010055541992e-01,1.000000000000000020816681711721685132943093776703e-02
2.200000000000000566213742558829835616052150726318e-01,-2.595661966774574502814232346281642094254493713379e-01,7.979714187399884472995381656801328063011169433594e-01,1.000000000000000020816681711721685132943093776703e-02
2.300000000000000655031584528842358849942684173584e-01,-2.365491870498137860767684514939901418983936309814e-01,8.041120414619689071855646034236997365951538085938e-01,1.000000000000000020816681711721685132943093776703e-02
2.400000000000000743849426498854882083833217620850e-01,-2.134220557604760426517742644136887975037097930908e-01,8.095936543739229440674876059347297996282577514648e-01,1.000000000000000020816681711721685132943093776703e-02
2.500000000000000555111512312578270211815834045410e-01,-1.902028241910440065076670634880429133772850036621e-01,8.144181680916381393942060640256386250257492065430e-01,1.000000000000000020816681711721685132943093776703e-02
2.600000000000000643929354282590793445706367492676e-01,-1.669092820553696732144288716881419532001018524170e-01,8.185879727304280484290188724116887897253036499023e-01,1.000000000000000020816681711721685132943093776703e-02
2.700000000000000732747196252603316679596900939941e-01,-1.435589758558124262588506780957686714828014373779e-01,8.221059051334647094222418672870844602584838867188e-01,1.000000000000000020816681711721685132943093776703e-02
2.800000000000000821565038222615839913487434387207e-01,-1.201692000399234988572416682472976390272378921509e-01,8.249752157893234238983382056176196783781051635742e-01,1.000000000000000020816681711721685132943093776703e-02
2.900000000000000910382880192628363147377967834473e-01,-9.675699090304284988306449122319463640451431274414e-02,8.271995358398621656093041565327439457178115844727e-01,1.000000000000000020816681711721685132943093776703e-02
3.000000000000000999200722162640886381268501281738e-01,-7.333912323509765573970042851215112023055553436279e-02,8.287828445710235802934562343580182641744613647461e-01,1.000000000000000020816681711721685132943093776703e-02
3.100000000000001088018564132653409615159034729004e-01,-4.993210966398166361646104860483319498598575592041e-02,8.297294377645899610129731627239380031824111938477e-01,1.000000000000000020816681711721685132943093776703e-02
3.200000000000001176836406102665932849049568176270e-01,-2.655220260401230242264247749517380725592374801636e-02,8.300438972690317163127815547341015189886093139648e-01,1.000000000000000020816681711721685132943093776703e-02
3.300000000000001265654248072678456082940101623535e-01,-3.215398676736008765075780502229463309049606323242e-03,8.297310621230957750071866030339151620864868164062e-01,1.000000000000000020816681711721685132943093776703e-02
3.400000000000001354472090042690979316830635070801e-01,2.006255456670701792232236471136275213211774826050e-02,8.287960015374170597013403494202066212892532348633e-01,1.000000000000000020816681711721685132943093776703e-02
3.500000000000001443289932012703502550721168518066e-01,4.326614982693786221057408170054259244352579116821e-02,8.272439900079364694107653122046031057834625244141e-01,1.000000000000000020816681711721685132943093776703e-02
3.600000000000001532107773982716025784611701965332e-01,6.638010937731858573940257883805315941572189331055e-02,8.250804848009525294116883742390200495719909667969e-01,1.000000000000000020816681711721685132943093776703e-02
3.700000000000001620925615952728549018502235412598e-01,8.938937278701676591996516663130023516714572906494e-02,8.223111060138760253224177176889497786760330200195e-01,1.000000000000000020816681711721685132943093776703e-02
3.800000000000001709743457922741072252392768859863e-01,1.122790833309754848778894142924400512129068374634e-01,8.189416193787674158599543261516373604536056518555e-01,1.000000000000000020816681711721685132943093776703e-02
3.900000000000001798561299892753595486283302307129e-01,1.350345733897134747891755068849306553602218627930e-01,8.149779219380393069371848469018004834651947021484e-01,1.000000000000000020816681711721685132943093776703e-02
4.000000000000001887379141862766118720173835754395e-01,1.576413491557174251234130224474938586354255676270e-01,8.104260306837397509482912028033751994371414184570e-01,1.000000000000000020816681711721685132943093776703e-02
4.100000000000001976196983832778641954064369201660e-01,1.800850749727843647107761171355377882719039916992e-01,8.052920742139832999129112067748792469501495361328e-01,1.000000000000000020816681711721685132943093776703e-02
4.200000000000002065014825802791165187954902648926e-01,2.023515576400758964048520738288061693310737609863e-01,7.995822874226744536585442801879253238439559936523e-01,1.000000000000000020816681711721685132943093776703e-02
4.300000000000002153832667772803688421845436096191e-01,2.244267310139193283280434343396336771547794342041e-01,7.933030092019446311013552985968999564647674560547e-01,1.000000000000000020816681711721685132943093776703e-02
4.400000000000002242650509742816211655735969543457e-01,2.462966412376008662477033794857561588287353515625e-01,7.864606831009117726694057637359946966171264648438e-01,1.000000000000000020816681711721685132943093776703e-02
4.500000000000002331468351712828734889626502990723e-01,2.679474329226098627820817910105688497424125671387e-01,7.790618608496606700697384439990855753421783447266e-01,1.000000000000000020816681711721685132943093776703e-02
4.600000000000002420286193682841258123517036437988e-01,2.893653365940723198868056442734086886048316955566e-01,7.711132086238950966716743096185382455587387084961e-01,1.000000000000000020816681711721685132943093776703e-02
4.700000000000002509104035652853781357407569885254e-01,3.105366576985212900829935733781894668936729431152e-01,7.626215158936902049902073486009612679481506347656e-01,1.000000000000000020816681711721685132943093776703e-02
4.800000000000002597921877622866304591298103332520e-01,3.314477674537500417883961745246779173612594604492e-01,7.535937066693273456152724065759684890508651733398e-01,1.000000000000000020816681711721685132943093776703e-02
4.900000000000002686739719592878827825188636779785e-01,3.520850957983551188235082918254192918539047241211e-01,7.440368529284979715043846226762980222702026367188e-01,1.000000000000000020816681711721685132943093776703e-02
5.000000000000002220446049250313080847263336181641e-01,3.724351266727856102356497558503178879618644714355e-01,7.339581899824088040418246237095445394515991210938e-01,1.000000000000000020816681711721685132943093776703e-02
