time,u0,u1,tau
0.000000000000000000000000000000000000000000000000e+00,-1.000000000000000000000000000000000000000000000000e+00,3.000000000000000444089209850062616169452667236328e-01,1.000000000000000020816681711721685132943093776703e-02
1.000000000000000020816681711721685132943093776703e-02,-9.822457261641398540419345408736262470483779907227e-01,3.420116420631492126780415219400310888886451721191e-01,1.000000000000000020816681711721685132943093776703e-02
2.000000000000000041633363423443370265886187553406e-02,-9.630062148315280401433824408741202205419540405273e-01,3.827897308246175911428110794076928868889808654785e-01,1.000000000000000020816681711721685132943093776703e-02
2.999999999999999888977697537484345957636833190918e-02,-9.423508072239941135705976194003596901893615722656e-01,4.223000610313376590454481629421934485435485839844e-01,1.000000000000000020816681711721685132943093776703e-02
4.000000000000000083266726846886740531772375106812e-02,-9.203475049760098114504103250510524958372116088867e-01,4.605106674791977217076066608569817617535591125488e-01,1.000000000000000020816681711721685132943093776703e-02
5.000000000000000277555756156289135105907917022705e-02,-8.970631963751668491724444720603059977293014526367e-01,4.973918121393487989934101278777234256267547607422e-01,1.000000000000000020816681711721685132943093776703e-02
6.000000000000000471844785465691529680043458938599e-02,-8.725638616069725239654530923871789127588272094727e-01,5.329160065372436916319998090330045670270919799805e-01,1.000000000000000020816681711721685132943093776703e-02
7.000000000000000666133814775093924254179000854492e-02,-8.469147515082741106695607413712423294782638549805e-01,5.670580629491130952857247393694706261157989501953e-01,1.000000000000000020816681711721685132943093776703e-02
8.000000000000000166533453693773481063544750213623e-02,-8.201805354199972475370827851293142884969711303711e-01,5.997951671649377480832754372386261820793151855469e-01,1.000000000000000020816681711721685132943093776703e-02
8.999999999999999666933092612453037872910499572754e-02,-7.924254149485008280606734842876903712749481201172e-01,6.311069650617514570356547665141988545656204223633e-01,1.000000000000000020816681711721685132943093776703e-02
9.999999999999999167332731531132594682276248931885e-02,-7.637132017530365857282959041185677051544189453125e-01,6.609756550544158004711903231509495526552200317383e-01,1.000000000000000020816681711721685132943093776703e-02
1.099999999999999866773237044981215149164199829102e-01,-7.341073588247799541761651198612526059150695800781e-01,6.893860786465403345246727440098766237497329711914e-01,1.000000000000000020816681711721685132943093776703e-02
1.199999999999999816813200936849170830100774765015e-01,-7.036710060561074397966763172007631510496139526367e-01,7.163258017791918064176570624113082885742187500000e-01,1.000000000000000020816681711721685132943093776703e-02
1.299999999999999766853164828717126511037349700928e-01,-6.724668921610698069102340923564042896032333374023e-01,7.417851804397590509410065351403318345546722412109e-01,1.000000000000000020816681711721685132943093776703e-02
1.399999999999999855671006798729649744927883148193e-01,-6.405573361453660297115675348322838544845581054688e-01,7.657574050023818745813741770689375698566436767578e-01,1.000000000000000020816681711721685132943093776703e-02
1.499999999999999944488848768742172978818416595459e-01,-6.080041424886682976946872258849907666444778442383e-01,7.882385189664460334313389466842636466026306152344e-01,1.000000000000000020816681711721685132943093776703e-02
1.600000000000000033306690738754696212708950042725e-01,-5.748684949556093215505825355648994445800781250000e-01,8.092274090737509029125362758350092917680740356445e-01,1.000000000000000020816681711721685132943093776703e-02
1.700000000000000122124532708767219446599483489990e-01,-5.412108344682318161744660756085067987442016601562e-01,8.287257651473064479219488021044526249170303344727e-01,1.000000000000000020816681711721685132943093776703e-02
1.800000000000000210942374678779742680490016937256e-01,-5.070907267403372831182650770642794668674468994141e-01,8.467380093359339054970291726931463927030563354492e-01,1.000000000000000020816681711721685132943093776703e-02
1.900000000000000299760216648792265914380550384521e-01,-4.725667253954553559402995688287774100899696350098e-01,8.632711957058318841262689602444879710674285888672e-01,1.000000000000000020816681711721685132943093776703e-02
2.000000000000000388578058618804789148271083831787e-01,-4.376962360810328078741804347373545169830322265625e-01,8.783348822401311206675700304913334548473358154297e-01,1.000000000000000020816681711721685132943093776703e-02
2.100000000000000477395900588817312382161617279053e-01,-4.025353866793061063944492161681409925222396850586e-01,8.919409782502594197239886852912604808807373046875e-01,1.000000000000000020816681711721685132943093776703e-02
2.200000000000000566213742558829835616052150726318e-01,-3.671389081361748907283981679938733577728271484375e-01,9.041035709430409461617728084092959761619567871094e-01,1.000000000000000020816681711721685132943093776703e-02
2.300000000000000655031584528842358849942684173584e-01,-3.315600297245801519885333163983887061476707458496e-01,9.148387354135254501130702919908799231052398681641e-01,1.000000000000000020816681711721685132943093776703e-02
2.400000000000000743849426498854882083833217620850e-01,-2.958503917717756892535874158056685701012611389160e-01,9.241643326473705233325972585589624941349029541016e-01,1.000000000000000020816681711721685132943093776703e-02
2.500000000000000555111512312578270211815834045410e-01,-2.600599780527738102975376932590734213590621948242e-01,9.320998002310186825170035262999590486288070678711e-01,1.000000000000000020816681711721685132943093776703e-02
2.600000000000000643929354282590793445706367492676e-01,-2.242370692238609963808926295314449816942214965820e-01,9.386659404042267951240319234784692525863647460938e-01,1.000000000000000020816681711721685132943093776703e-02
2.700000000000000732747196252603316679596900939941e-01,-1.884282178736754187475810340401949360966682434082e-01,9.438847098746686592463106535433325916528701782227e-01,1.000000000000000020816681711721685132943093776703e-02
2.800000000000000821565038222615839913487434387207e-01,-1.526782450315816164199134163936832919716835021973e-01,9.477790154782621545592746770125813782215118408203e-01,1.000000000000000020816681711721685132943093776703e-02
2.900000000000000910382880192628363147377967834473e-01,-1.170302573136013102317320999645744450390338897705e-01,9.503725193420474726124780318059492856264114379883e-01,1.000000000000000020816681711721685132943093776703e-02
3.000000000000000999200722162640886381268501281738e-01,-8.152568331774082133200920452509308233857154846191e-02,9.516894567179642328014210761466529220342636108398e-01,1.000000000000000020816681711721685132943093776703e-02
3.100000000000001088018564132653409615159034729004e-01,-4.620432740973186985788956349097134079784154891968e-02,9.517544691320397598488511903269682079553604125977e-01,1.000000000000000020816681711721685132943093776703e-02
3.200000000000001176836406102665932849049568176270e-01,-1.110443866822721781240090876963222399353981018066e-02,9.505924549568866011028944740246515721082687377930e-01,1.000000000000000020816681711721685132943093776703e-02
3.300000000000001265654248072678456082940101623535e-01,2.373720751756228791728986493581032846122980117798e-02,9.482284389844151117898718439391814172267913818359e-01,1.000000000000000020816681711721685132943093776703e-02
3.400000000000001354472090042690979316830635070801e-01,5.828521789088618454410806180021609179675579071045e-02,9.446874620644517550616114931472111493349075317383e-01,1.000000000000000020816681711721685132943093776703e-02
3.500000000000001443289932012703502550721168518066e-01,9.250548260821667145847868596320040524005889892578e-02,9.399944913936612023164229867688845843076705932617e-01,1.000000000000000020816681711721685132943093776703e-02
3.600000000000001532107773982716025784611701965332e-01,1.263650721855816005945172264546272344887256622314e-01,9.341743515943713438431927897909190505743026733398e-01,1.000000000000000020816681711721685132943093776703e-02
3.700000000000001620925615952728549018502235412598e-01,1.598321329047900918318703133991220965981483459473e-01,9.272516763181678500771454309870023280382156372070e-01,1.000000000000000020816681711721685132943093776703e-02
3.800000000000001709743457922741072252392768859863e-01,1.928757833847027369778004413092276081442832946777e-01,9.192508797456675484482957472209818661212921142578e-01,1.000000000000000020816681711721685132943093776703e-02
3.900000000000001798561299892753595486283302307129e-01,2.254660148856108548010013237217208370566368103027e-01,9.101961470311815682876499522535596042871475219727e-01,1.000000000000000020816681711721685132943093776703e-02
4.000000000000001887379141862766118720173835754395e-01,2.575735977364824735857951054640579968690872192383e-01,9.001114424574330197259541819221340119838714599609e-01,1.000000000000000020816681711721685132943093776703e-02
4.100000000000001976196983832778641954064369201660e-01,2.891699960609118713605880657269153743982315063477e-01,8.890205338189244299584856889850925654172897338867e-01,1.000000000000000020816681711721685132943093776703e-02
4.200000000000002065014825802791165187954902648926e-01,3.202272927326748064302819329896010458469390869141e-01,8.769470313407184969278773678524885326623916625977e-01,1.000000000000000020816681711721685132943093776703e-02
4.300000000000002153832667772803688421845436096191e-01,3.507181262196483739757013609050773084163665771484e-01,8.639144392603652633511046587955206632614135742188e-01,1.000000000000000020816681711721685132943093776703e-02
4.400000000000002242650509742816211655735969543457e-01,3.806156406787944979086546481994446367025375366211e-01,8.499462180531177635245398960250895470380783081055e-01,1.000000000000000020816681711721685132943093776703e-02
4.500000000000002331468351712828734889626502990723e-01,4.098934503480524682572649908252060413360595703125e-01,8.350658551638359128332922409754246473312377929688e-01,1.000000000000000020816681711721685132943093776703e-02
4.600000000000002420286193682841258123517036437988e-01,4.385256189466362197748594553559087216854095458984e-01,8.192969420232996125008639864972792565822601318359e-01,1.000000000000000020816681711721685132943093776703e-02
4.700000000000002509104035652853781357407569885254e-01,4.664866544471994447285112528334138914942741394043e-01,8.026632550730499193747391473152674734592437744141e-01,1.000000000000000020816681711721685132943093776703e-02
4.800000000000002597921877622866304591298103332520e-01,4.937515192262265650846586595434928312897682189941e-01,7.851888385029993644437240618572104722261428833008e-01,1.000000000000000020816681711721685132943093776703e-02
4.900000000000002686739719592878827825188636779785e-01,5.202956552384496724528162303613498806953430175781e-01,7.668980864219721027552623127121478319168090820312e-01,1.000000000000000020816681711721685132943093776703e-02
5.000000000000002220446049250313080847263336181641e-01,5.460950235037990152520137598912697285413742065430e-01,7.478158222352362383134050105581991374492645263672e-01,1.000000000000000020816681711721685132943093776703e-02
