time,u0,u1,tau
0.000000000000000000000000000000000000000000000000e+00,7.000000000000001776356839400250464677810668945312e-01,-8.000000000000000444089209850062616169452667236328e-01,1.000000000000000020816681711721685132943093776703e-02
1.000000000000000020816681711721685132943093776703e-02,6.607591554072044237599925509130116552114486694336e-01,-8.269395253563168735055910474329721182584762573242e-01,1.000000000000000020816681711721685132943093776703e-02
2.000000000000000041633363423443370265886187553406e-02,6.208778319025728409386033490591216832399368286133e-01,-8.517840945059157453655984681972768157720565795898e-01,1.000000000000000020816681711721685132943093776703e-02
2.999999999999999888977697537484345957636833190918e-02,5.804466428784653686534511507488787174224853515625e-01,-8.745570614479799553819816537725273519754409790039e-01,1.000000000000000020816681711721685132943093776703e-02
4.000000000000000083266726846886740531772375106812e-02,5.395536532702168708297563171072397381067276000977e-01,-8.952852568927908150087091598834376782178878784180e-01,1.000000000000000020816681711721685132943093776703e-02
5.000000000000000277555756156289135105907917022705e-02,4.982841717746155363322202447307063266634941101074e-01,-9.139987691577929895814236260775942355394363403320e-01,1.000000000000000020816681711721685132943093776703e-02
6.000000000000000471844785465691529680043458938599e-02,4.567205571570924216295850328606320545077323913574e-01,-9.307306680960538702862550053396262228488922119141e-01,1.000000000000000020816681711721685132943093776703e-02
7.000000000000000666133814775093924254179000854492e-02,4.149420497595557311143465994973666965961456298828e-01,-9.455166847012009823103539929434191435575485229492e-01,1.000000000000000020816681711721685132943093776703e-02
8.000000000000000166533453693773481063544750213623e-02,3.730246367063156376353560972347622737288475036621e-01,-9.583948594027729139810389824560843408107757568359e-01,1.000000000000000020816681711721685132943093776703e-02
8.999999999999999666933092612453037872910499572754e-02,3.310409566764203059818783003720454871654510498047e-01,-9.694051718287992613909409556072205305099487304688e-01,1.000000000000000020816681711721685132943093776703e-02
9.999999999999999167332731531132594682276248931885e-02,2.890602476007789745082732224545907229185104370117e-01,-9.785891640758320741966258538013789802789688110352e-01,1.000000000000000020816681711721685132943093776703e-02
1.099999999999999866773237044981215149164199829102e-01,2.471483383557496749105553135450463742017745971680e-01,-9.859895684118480385649263553204946219921112060547e-01,1.000000000000000020816681711721685132943093776703e-02
1.199999999999999816813200936849170830100774765015e-01,2.053676835329164840349136511576944030821323394775e-01,-9.916499489660054456052762361650820821523666381836e-01,1.000000000000000020816681711721685132943093776703e-02
1.299999999999999766853164828717126511037349700928e-01,1.637774387076088578041321852651890367269515991211e-01,-9.956143654429872036359938647365197539329528808594e-01,1.000000000000000020816681711721685132943093776703e-02
1.399999999999999855671006798729649744927883148193e-01,1.224335723187737062778168706245196517556905746460e-01,-9.979270653341908436928520131914410740137100219727e-01,1.000000000000000020816681711721685132943093776703e-02
1.499999999999999944488848768742172978818416595459e-01,8.138900930050507742663512544822879135608673095703e-02,-9.986322095595320247340964670001994818449020385742e-01,1.000000000000000020816681711721685132943093776703e-02
1.600000000000000033306690738754696212708950042725e-01,4.069380094534148784024552014670916832983493804932e-02,-9.977736350183127322921450286230538040399551391602e-01,1.000000000000000020816681711721685132943093776703e-02
1.700000000000000122124532708767219446599483489990e-01,3.953150958480797227956315964547684416174888610840e-04,-9.953946561930513414750976153300143778324127197266e-01,1.000000000000000020816681711721685132943093776703e-02
1.800000000000000210942374678779742680490016937256e-01,-3.946155938629805626227664561156416311860084533691e-02,-9.915379067578113936320960419834591448307037353516e-01,1.000000000000000020816681711721685132943093776703e-02
1.900000000000000299760216648792265914380550384521e-01,-7.883419987643437709667892931975075043737888336182e-02,-9.862452211008005953374322416493669152259826660156e-01,1.000000000000000020816681711721685132943093776703e-02
2.000000000000000388578058618804789148271083831787e-01,-1.176820347660339910467186541609407868236303329468e-01,-9.795575547783820224978512669622432440519332885742e-01,1.000000000000000020816681711721685132943093776703e-02
2.100000000000000477395900588817312382161617279053e-01,-1.559663312348902319826038365135900676250457763672e-01,-9.715149421658917372468522444250993430614471435547e-01,1.000000000000000020816681711721685132943093776703e-02
2.200000000000000566213742558829835616052150726318e-01,-1.936499910645663180552844551129965111613273620605e-01,-9.621564889473931403429673991922754794359207153320e-01,1.000000000000000020816681711721685132943093776703e-02
2.300000000000000655031584528842358849942684173584e-01,-2.306973590481904423654668789822608232498168945312e-01,-9.515203965774222671925031136197503656148910522461e-01,1.000000000000000020816681711721685132943093776703e-02
2.400000000000000743849426498854882083833217620850e-01,-2.670740480048007792213127231661928817629814147949e-01,-9.396440154384942955445580992090981453657150268555e-01,1.000000000000000020816681711721685132943093776703e-02
2.500000000000000555111512312578270211815834045410e-01,-3.027467838186718163129285130708012729883193969727e-01,-9.265639230954774152593245162279345095157623291016e-01,1.000000000000000020816681711721685132943093776703e-02
2.600000000000000643929354282590793445706367492676e-01,-3.376832733046409296129297672450775280594825744629e-01,-9.123160238009062616981736937304958701133728027344e-01,1.000000000000000020816681711721685132943093776703e-02
2.700000000000000732747196252603316679596900939941e-01,-3.718520970562594341046747103973757475614547729492e-01,-8.969356652256526007960246715811081230640411376953e-01,1.000000000000000020816681711721685132943093776703e-02
2.800000000000000821565038222615839913487434387207e-01,-4.052226287703174500975933369772974401712417602539e-01,-8.804577682718259801220028748502954840660095214844e-01,1.000000000000000020816681711721685132943093776703e-02
2.900000000000000910382880192628363147377967834473e-01,-4.377649818646622836837423164979554712772369384766e-01,-8.629169657669749637918243934109341353178024291992e-01,1.000000000000000020816681711721685132943093776703e-02
3.000000000000000999200722162640886381268501281738e-01,-4.694499835230400153207597213622648268938064575195e-01,-8.443477458408119584731821305467747151851654052734e-01,1.000000000000000020816681711721685132943093776703e-02
3.100000000000001088018564132653409615159034729004e-01,-5.002491756196077998808391384955029934644699096680e-01,-8.247845958499756546800085743598174303770065307617e-01,1.000000000000000020816681711721685132943093776703e-02
3.200000000000001176836406102665932849049568176270e-01,-5.301348413078388333019574929494410753250122070312e-01,-8.042621428461840249468650654307566583156585693359e-01,1.000000000000000020816681711721685132943093776703e-02
3.300000000000001265654248072678456082940101623535e-01,-5.590800554173583902795030553534161299467086791992e-01,-7.828152867821999150166334402456413954496383666992e-01,1.000000000000000020816681711721685132943093776703e-02
3.400000000000001354472090042690979316830635070801e-01,-5.870587562037047346663598546001594513654708862305e-01,-7.604793229213091532159296548343263566493988037109e-01,1.000000000000000020816681711721685132943093776703e-02
3.500000000000001443289932012703502550721168518066e-01,-6.140458354576812105563021759735420346260070800781e-01,-7.372900502607508954611148510593920946121215820312e-01,1.000000000000000020816681711721685132943093776703e-02
3.600000000000001532107773982716025784611701965332e-01,-6.400172435211680666000688688654918223619461059570e-01,-7.132838631963767106469731515971943736076354980469e-01,1.000000000000000020816681711721685132943093776703e-02
3.700000000000001620925615952728549018502235412598e-01,-6.649501053927796556664020499738398939371109008789e-01,-6.884978241400131482308211161580402404069900512695e-01,1.000000000000000020816681711721685132943093776703e-02
3.800000000000001709743457922741072252392768859863e-01,-6.888228438554540034033379924949258565902709960938e-01,-6.629697153440274881575078325113281607627868652344e-01,1.000000000000000020816681711721685132943093776703e-02
3.900000000000001798561299892753595486283302307129e-01,-7.116153054314512393929703648609574884176254272461e-01,-6.367380687769441660606162258773110806941986083984e-01,1.000000000000000020816681711721685132943093776703e-02
4.000000000000001887379141862766118720173835754395e-01,-7.333088849761643102098673807631712406873703002930e-01,-6.098421735134578192116805439582094550132751464844e-01,1.000000000000000020816681711721685132943093776703e-02
4.100000000000001976196983832778641954064369201660e-01,-7.538866448627647987024147369083948433399200439453e-01,-5.823220607325854114577623477089218795299530029297e-01,1.000000000000000020816681711721685132943093776703e-02
4.200000000000002065014825802791165187954902648926e-01,-7.733334249808800908709827126585878431797027587891e-01,-5.542184670376715249773269533761776983737945556641e-01,1.000000000000000020816681711721685132943093776703e-02
4.300000000000002153832667772803688421845436096191e-01,-7.916359401636526849088681956345681101083755493164e-01,-5.255727773993345008918254279706161469221115112305e-01,1.000000000000000020816681711721685132943093776703e-02
4.400000000000002242650509742816211655735969543457e-01,-8.087828621521060412646875192876905202865600585938e-01,-4.964269495556086764231906727218301966786384582520e-01,1.000000000000000020816681711721685132943093776703e-02
4.500000000000002331468351712828734889626502990723e-01,-8.247648837820578116009073710301890969276428222656e-01,-4.668234221628601576803418993222294375300407409668e-01,1.000000000000000020816681711721685132943093776703e-02
4.600000000000002420286193682841258123517036437988e-01,-8.395747637114708838979026950255502015352249145508e-01,-4.368050093601806294074663128412794321775436401367e-01,1.000000000000000020816681711721685132943093776703e-02
4.700000000000002509104035652853781357407569885254e-01,-8.532073506675691421108354006719309836626052856445e-01,-4.064147846768829674957146380620542913675308227539e-01,1.000000000000000020816681711721685132943093776703e-02
4.800000000000002597921877622866304591298103332520e-01,-8.656595868553517147958586974709760397672653198242e-01,-3.756959573704926613757493214507121592760086059570e-01,1.000000000000000020816681711721685132943093776703e-02
4.900000000000002686739719592878827825188636779785e-01,-8.769304908057458103343151378794573247432708740234e-01,-3.446917443296880212422195199906127527356147766113e-01,1.000000000000000020816681711721685132943093776703e-02
5.000000000000002220446049250313080847263336181641e-01,-8.870211205288286437919964555476326495409011840820e-01,-3.134452406167234639333685208839597180485725402832e-01,1.000000000000000020816681711721685132943093776703e-02
