time,u0,u1,tau
0.000000000000000000000000000000000000000000000000e+00,-1.000000000000000000000000000000000000000000000000e+00,-8.000000000000000444089209850062616169452667236328e-01,1.000000000000000020816681711721685132943093776703e-02
1.000000000000000020816681711721685132943093776703e-02,-1.034945399476637772906428835995029658079147338867e+00,-7.250553757566287060853937873616814613342285156250e-01,1.000000000000000020816681711721685132943093776703e-02
2.000000000000000041633363423443370265886187553406e-02,-1.064515310313955298582300201815087348222732543945e+00,-6.513656801164623422195631974318530410528182983398e-01,1.000000000000000020816681711721685132943093776703e-02
2.999999999999999888977697537484345957636833190918e-02,-1.089132648391214264194104544003494083881378173828e+00,-5.789313600111503088641029535210691392421722412109e-01,1.000000000000000020816681711721685132943093776703e-02
4.000000000000000083266726846886740531772375106812e-02,-1.109164629201446761186389267095364630222320556641e+00,-5.077711732061389593440026146708987653255462646484e-01,1.000000000000000020816681711721685132943093776703e-02
5.000000000000000277555756156289135105907917022705e-02,-1.124934760621281837345009080308955162763595581055e+00,-4.379146375194970519650894402730045840144157409668e-01,1.000000000000000020816681711721685132943093776703e-02
6.000000000000000471844785465691529680043458938599e-02,-1.136731355099516171947016118792816996574401855469e+00,-3.693971642129613153215927923156414180994033813477e-01,1.000000000000000020816681711721685132943093776703e-02
7.000000000000000666133814775093924254179000854492e-02,-1.144813737126968211654798324161674827337265014648e+00,-3.022569329883990629781465031555853784084320068359e-01,1.000000000000000020816681711721685132943093776703e-02
8.000000000000000166533453693773481063544750213623e-02,-1.149416892974751247535891707229893654584884643555e+00,-2.365329186319906074054131295270053669810295104980e-01,1.000000000000000020816681711721685132943093776703e-02
8.999999999999999666933092612453037872910499572754e-02,-1.150755049628173987130708155746106058359146118164e+00,-1.722636872972438948359297228307696059346199035645e-01,1.000000000000000020816681711721685132943093776703e-02
9.999999999999999167332731531132594682276248931885e-02,-1.149024507052419430408463085768744349479675292969e+00,-1.094867075080816765098035148184862919151782989502e-01,1.000000000000000020816681711721685132943093776703e-02
1.099999999999999866773237044981215149164199829102e-01,-1.144405943074068954246058638091199100017547607422e+00,-4.823800123099267200821316237124847248196601867676e-02,1.000000000000000020816681711721685132943093776703e-02
1.199999999999999816813200936849170830100774765015e-01,-1.137066340851789592036880094383377581834793090820e+00,1.144798732659157991520260111428797245025634765625e-02,1.000000000000000020816681711721685132943093776703e-02
1.299999999999999766853164828717126511037349700928e-01,-1.127160641994611411931259681296069175004959106445e+00,6.953839236730587070045572772869491018354892730713e-02,1.000000000000000020816681711721685132943093776703e-02
1.399999999999999855671006798729649744927883148193e-01,-1.114833195950403643692538935283664613962173461914e+00,1.260018593566389344395872740278718993067741394043e-01,1.000000000000000020816681711721685132943093776703e-02
1.499999999999999944488848768742172978818416595459e-01,-1.100219053455918416517533842124976217746734619141e+00,1.808084552687798662873319699428975582122802734375e-01,1.000000000000000020816681711721685132943093776703e-02
1.600000000000000033306690738754696212708950042725e-01,-1.083445135553753324586523376638069748878479003906e+00,2.339295883144844045986587843799497932195663452148e-01,1.000000000000000020816681711721685132943093776703e-02
1.700000000000000122124532708767219446599483489990e-01,-1.064631297988209990279528938117437064647674560547e+00,2.853379590910052332475288494606502354145050048828e-01,1.000000000000000020816681711721685132943093776703e-02
1.800000000000000210942374678779742680490016937256e-01,-1.043891302425655531749271176522597670555114746094e+00,3.350075569561971056131710611225571483373641967773e-01,1.000000000000000020816681711721685132943093776703e-02
1.900000000000000299760216648792265914380550384521e-01,-1.021333700071811012577427391079254448413848876953e+00,3.829137087231520575336674028221750631928443908691e-01,1.000000000000000020816681711721685132943093776703e-02
2.000000000000000388578058618804789148271083831787e-01,-9.970626293173442400430417364987079054117202758789e-01,4.290331811597484223952392312639858573675155639648e-01,1.000000000000000020816681711721685132943093776703e-02
2.100000000000000477395900588817312382161617279053e-01,-9.711785266438059949223315925337374210357666015625e-01,4.733443340811998578665509285201551392674446105957e-01,1.000000000000000020816681711721685132943093776703e-02
2.200000000000000566213742558829835616052150726318e-01,-9.437787488774139754710290617367718368768692016602e-01,5.158273169695724025274330415413714945316314697266e-01,1.000000000000000020816681711721685132943093776703e-02
2.300000000000000655031584528842358849942684173584e-01,-9.149581047600411354281391140830237418413162231445e-01,5.564642990317275605960389839310664683580398559570e-01,1.000000000000000020816681711721685132943093776703e-02
2.400000000000000743849426498854882083833217620850e-01,-8.848092945153603894326010959048289805650711059570e-01,5.952397204354619164590189939190167933702468872070e-01,1.000000000000000020816681711721685132943093776703e-02
2.500000000000000555111512312578270211815834045410e-01,-8.534232574339573051958041105535812675952911376953e-01,6.321405511647115726958645609556697309017181396484e-01,1.000000000000000020816681711721685132943093776703e-02
2.600000000000000643929354282590793445706367492676e-01,-8.208894292955289939683893862820696085691452026367e-01,6.671565435119410913955562136834487318992614746094e-01,1.000000000000000020816681711721685132943093776703e-02
2.700000000000000732747196252603316679596900939941e-01,-7.872959134987056462051668859203346073627471923828e-01,7.002804646487664763654379385116044431924819946289e-01,1.000000000000000020816681711721685132943093776703e-02
2.800000000000000821565038222615839913487434387207e-01,-7.527295718914797095777657887083478271961212158203e-01,7.315082969118269495822914905147626996040344238281e-01,1.000000000000000020816681711721685132943093776703e-02
2.900000000000000910382880192628363147377967834473e-01,-7.172760433097490340159652078000362962484359741211e-01,7.608393952940203375234773375268559902906417846680e-01,1.000000000000000020816681711721685132943093776703e-02
3.000000000000000999200722162640886381268501281738e-01,-6.810196995803080577402965900546405464410781860352e-01,7.882765939881032357661183596064802259206771850586e-01,1.000000000000000020816681711721685132943093776703e-02
3.100000000000001088018564132653409615159034729004e-01,-6.440435501002812479498516040621325373649597167969e-01,8.138262565110740975882208658731542527675628662109e-01,1.000000000000000020816681711721685132943093776703e-02
3.200000000000001176836406102665932849049568176270e-01,-6.064291069784399912379058150690980255603790283203e-01,8.374982667536551295128788297006394714117050170898e-01,1.000000000000000020816681711721685132943093776703e-02
3.300000000000001265654248072678456082940101623535e-01,-5.682562230692812521581913642876315861940383911133e-01,8.593059610651589963481455924920737743377685546875e-01,1.000000000000000020816681711721685132943093776703e-02
3.400000000000001354472090042690979316830635070801e-01,-5.296029150460931367305761341413017362356185913086e-01,8.792660040364345119812128359626512974500656127930e-01,1.000000000000000020816681711721685132943093776703e-02
3.500000000000001443289932012703502550721168518066e-01,-4.905451829824132303770056751091033220291137695312e-01,8.973982128514491618531678795989137142896652221680e-01,1.000000000000000020816681711721685132943093776703e-02
3.600000000000001532107773982716025784611701965332e-01,-4.511568368128296979691072010609786957502365112305e-01,9.137253368504009154449363450112286955118179321289e-01,1.000000000000000020816681711721685132943093776703e-02
3.700000000000001620925615952728549018502235412598e-01,-4.115093386173141465356195567437680438160896301270e-01,9.282728002353655138989552142447791993618011474609e-01,1.000000000000000020816681711721685132943093776703e-02
3.800000000000001709743457922741072252392768859863e-01,-3.716716680235400138698764749278780072927474975586e-01,9.410684166447355059048618386441376060247421264648e-01,1.000000000000000020816681711721685132943093776703e-02
3.900000000000001798561299892753595486283302307129e-01,-3.317102162558360212152308577060466632246971130371e-01,9.521420846506146729026909270032774657011032104492e-01,1.000000000000000020816681711721685132943093776703e-02
4.000000000000001887379141862766118720173835754395e-01,-2.916887125771453481704043042554985731840133666992e-01,9.615254731454527803435894384165294468402862548828e-01,1.000000000000000020816681711721685132943093776703e-02
4.100000000000001976196983832778641954064369201660e-01,-2.516681851572727390831119009817484766244888305664e-01,9.692517051491233992521756590576842427253723144531e-01,1.000000000000000020816681711721685132943093776703e-02
4.200000000000002065014825802791165187954902648926e-01,-2.117069568244766553100077999260975047945976257324e-01,9.753550478622540209627800322778057307004928588867e-01,1.000000000000000020816681711721685132943093776703e-02
4.300000000000002153832667772803688421845436096191e-01,-1.718606747661941269722518654816667549312114715576e-01,9.798706158935935883746992658416274935007095336914e-01,1.000000000000000020816681711721685132943093776703e-02
4.400000000000002242650509742816211655735969543457e-01,-1.321823720673945268266891162056708708405494689941e-01,9.828340935711835646415579503809567540884017944336e-01,1.000000000000000020816681711721685132943093776703e-02
4.500000000000002331468351712828734889626502990723e-01,-9.272255802376710986933971980761270970106124877930e-02,9.842814811726807722180865312111563980579376220703e-01,1.000000000000000020816681711721685132943093776703e-02
4.600000000000002420286193682841258123517036437988e-01,-5.352933343971381929815578359921346418559551239014e-02,9.842488688316962663904519104107748717069625854492e-01,1.000000000000000020816681711721685132943093776703e-02
4.700000000000002509104035652853781357407569885254e-01,-1.464852660552345975375487796554807573556900024414e-02,9.827722408348047444803796679480001330375671386719e-01,1.000000000000000020816681711721685132943093776703e-02
4.800000000000002597921877622866304591298103332520e-01,2.387615467528311774536575740057742223143577575684e-02,9.798873120466665698202746170863974839448928833008e-01,1.000000000000000020816681711721685132943093776703e-02
4.900000000000002686739719592878827825188636779785e-01,6.200295979190997841534738199698040261864662170410e-02,9.756293973068245195534586855501402169466018676758e-01,1.000000000000000020816681711721685132943093776703e-02
5.000000000000002220446049250313080847263336181641e-01,9.969192555906199182391702606764738447964191436768e-02,9.700333138407402078229324615676887333393096923828e-01,1.000000000000000020816681711721685132943093776703e-02
