time,u0,u1,tau
0.000000000000000000000000000000000000000000000000e+00,4.000000000000001332267629550187848508358001708984e-01,-5.000000000000000000000000000000000000000000000000e-01,1.000000000000000020816681711721685132943093776703e-02
1.000000000000000020816681711721685132943093776703e-02,3.915612643301321638134027125488501042127609252930e-01,-5.063044899428130740659526054514572024345397949219e-01,1.000000000000000020816681711721685132943093776703e-02
2.000000000000000041633363423443370265886187553406e-02,3.830239916835277425022354691463988274335861206055e-01,-5.124674006357063937855400581611320376396179199219e-01,1.000000000000000020816681711721685132943093776703e-02
2.999999999999999888977697537484345957636833190918e-02,3.743905683988357768754440257907845079898834228516e-01,-5.184874592379616897730443270120304077863693237305e-01,1.000000000000000020816681711721685132943093776703e-02
4.000000000000000083266726846886740531772375106812e-02,3.656633897787611164886811820906586945056915283203e-01,-5.243634412725445281822089782508555799722671508789e-01,1.000000000000000020816681711721685132943093776703e-02
5.000000000000000277555756156289135105907917022705e-02,3.568448590594712199752791548235109075903892517090e-01,-5.300941703239918645351735904114320874214172363281e-01,1.000000000000000020816681711721685132943093776703e-02
6.000000000000000471844785465691529680043458938599e-02,3.479373863928771903886172367492690682411193847656e-01,-5.356785176827871808313830115366727113723754882812e-01,1.000000000000000020816681711721685132943093776703e-02
7.000000000000000666133814775093924254179000854492e-02,3.389433878441391323477205332892481237649917602539e-01,-5.411154019361024136713922416674904525279998779297e-01,1.000000000000000020816681711721685132943093776703e-02
8.000000000000000166533453693773481063544750213623e-02,3.298652844068534761845512548461556434631347656250e-01,-5.464037885049989329289132911071646958589553833008e-01,1.000000000000000020816681711721685132943093776703e-02
8.999999999999999666933092612453037872910499572754e-02,3.207055010384731730255225556902587413787841796875e-01,-5.515426891283999877302335335116367787122726440430e-01,1.000000000000000020816681711721685132943093776703e-02
9.999999999999999167332731531132594682276248931885e-02,3.114664657185885476842202024272410199046134948730e-01,-5.565311612943792951568866556044667959213256835938e-01,1.000000000000000020816681711721685132943093776703e-02
1.099999999999999866773237044981215149164199829102e-01,3.021506085327574919752180448995204642415046691895e-01,-5.613683076195457033463753759860992431640625000000e-01,1.000000000000000020816681711721685132943093776703e-02
1.199999999999999816813200936849170830100774765015e-01,2.927603607846174793571947247983189299702644348145e-01,-5.660532751775468884858355522737838327884674072266e-01,1.000000000000000020816681711721685132943093776703e-02
1.299999999999999766853164828717126511037349700928e-01,2.832981541390379720546377484424738213419914245605e-01,-5.705852547779592942589488302473910152912139892578e-01,1.000000000000000020816681711721685132943093776703e-02
1.399999999999999855671006798729649744927883148193e-01,2.737664197990787862124761886661872267723083496094e-01,-5.749634801970773256840629983344115316867828369141e-01,1.000000000000000020816681711721685132943093776703e-02
1.499999999999999944488848768742172978818416595459e-01,2.641675877195102106753665793803520500659942626953e-01,-5.791872273623620559490632331289816647768020629883e-01,1.000000000000000020816681711721685132943093776703e-02
1.600000000000000033306690738754696212708950042725e-01,2.545040858596201993613306058250600472092628479004e-01,-5.832558134925523996017204808595124632120132446289e-01,1.000000000000000020816681711721685132943093776703e-02
1.700000000000000122124532708767219446599483489990e-01,2.447783394779875776325894776164204813539981842041e-01,-5.871685961956830679397967287513893097639083862305e-01,1.000000000000000020816681711721685132943093776703e-02
1.800000000000000210942374678779742680490016937256e-01,2.349927704718322019061815808527171611785888671875e-01,-5.909249725274882125702902158081997185945510864258e-01,1.000000000000000020816681711721685132943093776703e-02
1.900000000000000299760216648792265914380550384521e-01,2.251497967634697450201031188043998554348945617676e-01,-5.945243780128977029164616396883502602577209472656e-01,1.000000000000000020816681711721685132943093776703e-02
2.000000000000000388578058618804789148271083831787e-01,2.152518317362959732186311612167628481984138488770e-01,-5.979662856335536957885778974741697311401367187500e-01,1.000000000000000020816681711721685132943093776703e-02
2.100000000000000477395900588817312382161617279053e-01,2.053012837226061149120681648128083907067775726318e-01,-6.012502047844853203528714402636978775262832641602e-01,1.000000000000000020816681711721685132943093776703e-02
2.200000000000000566213742558829835616052150726318e-01,1.953005555454185304675718271028017625212669372559e-01,-6.043756802032785868661335371143650263547897338867e-01,1.000000000000000020816681711721685132943093776703e-02
2.300000000000000655031584528842358849942684173584e-01,1.852520441163201803114191079657757654786109924316e-01,-6.073422908752669213683361704170238226652145385742e-01,1.000000000000000020816681711721685132943093776703e-02
2.400000000000000743849426498854882083833217620850e-01,1.751581400911836061684567766860709525644779205322e-01,-6.101496489184418114959385093243326991796493530273e-01,1.000000000000000020816681711721685132943093776703e-02
2.500000000000000555111512312578270211815834045410e-01,1.650212275854246457562624073034385219216346740723e-01,-6.127973984519436978501971680088900029659271240234e-01,1.000000000000000020816681711721685132943093776703e-02
2.600000000000000643929354282590793445706367492676e-01,1.548436839502741468876934050058480352163314819336e-01,-6.152852144521397947940499761898536235094070434570e-01,1.000000000000000020816681711721685132943093776703e-02
2.700000000000000732747196252603316679596900939941e-01,1.446278796113308895421312172402394935488700866699e-01,-6.176128016004244214443019700411241501569747924805e-01,1.000000000000000020816681711721685132943093776703e-02
2.800000000000000821565038222615839913487434387207e-01,1.343761779704434333737594897684175521135330200195e-01,-6.197798931269934419319156404526438564062118530273e-01,1.000000000000000020816681711721685132943093776703e-02
2.900000000000000910382880192628363147377967834473e-01,1.240909353717408597495008848454745020717382431030e-01,-6.217862496549417805624671018449589610099792480469e-01,1.000000000000000020816681711721685132943093776703e-02
3.000000000000000999200722162640886381268501281738e-01,1.137745011323934851699135606395429931581020355225e-01,-6.236316580491140237896274811646435409784317016602e-01,1.000000000000000020816681711721685132943093776703e-02
3.100000000000001088018564132653409615159034729004e-01,1.034292176384388611820597247969999443739652633667e-01,-6.253159302742015146492349231266416609287261962891e-01,1.000000000000000020816681711721685132943093776703e-02
3.200000000000001176836406102665932849049568176270e-01,9.305742050575531443268317843831027857959270477295e-02,-6.268389022666289722707233522669412195682525634766e-01,1.000000000000000020816681711721685132943093776703e-02
3.300000000000001265654248072678456082940101623535e-01,8.266143880600551607784609586815349757671356201172e-02,-6.282004328247999813683577485790010541677474975586e-01,1.000000000000000020816681711721685132943093776703e-02
3.400000000000001354472090042690979316830635070801e-01,7.224359535710871138558530901718768291175365447998e-02,-6.294004025222861287147679831832647323608398437500e-01,1.000000000000000020816681711721685132943093776703e-02
3.500000000000001443289932012703502550721168518066e-01,6.180620707753184395194523403915809467434883117676e-02,-6.304387126485394565733599847590085119009017944336e-01,1.000000000000000020816681711721685132943093776703e-02
3.600000000000001532107773982716025784611701965332e-01,5.135158540341860922140426737314555794000625610352e-02,-6.313152841816868088287151294935029000043869018555e-01,1.000000000000000020816681711721685132943093776703e-02
3.700000000000001620925615952728549018502235412598e-01,4.088203676730223223856341974169481545686721801758e-02,-6.320300567979266759266465669497847557067871093750e-01,1.000000000000000020816681711721685132943093776703e-02
3.800000000000001709743457922741072252392768859863e-01,3.039986313687344579581584014249528991058468818665e-02,-6.325829879219967422088188868656288832426071166992e-01,1.000000000000000020816681711721685132943093776703e-02
3.900000000000001798561299892753595486283302307129e-01,1.990736261200056270159741700354061322286725044250e-02,-6.329740518231088408640516718151047825813293457031e-01,1.000000000000000020816681711721685132943093776703e-02
4.000000000000001887379141862766118720173835754395e-01,9.406830077924605709727146063414693344384431838989e-03,-6.332032387606648660138830564392264932394027709961e-01,1.000000000000000020816681711721685132943093776703e-02
4.100000000000001976196983832778641954064369201660e-01,-1.099442087720073346623905763408401980996131896973e-03,-6.332705541839646068424940494878683239221572875977e-01,1.000000000000000020816681711721685132943093776703e-02
4.200000000000002065014825802791165187954902648926e-01,-1.160916325667957042788724919546439195983111858368e-02,-6.331760179900041141110023090732283890247344970703e-01,1.000000000000000020816681711721685132943093776703e-02
4.300000000000002153832667772803688421845436096191e-01,-2.212004374353584296164498823600297328084707260132e-02,-6.329196638433308708115987428755033761262893676758e-01,1.000000000000000020816681711721685132943093776703e-02
4.400000000000002242650509742816211655735969543457e-01,-3.262979395399478316219799012287694495171308517456e-02,-6.325015385617809293705704476451501250267028808594e-01,1.000000000000000020816681711721685132943093776703e-02
4.500000000000002331468351712828734889626502990723e-01,-4.313612349141732194013343359983991831541061401367e-02,-6.319217015717655261397567301173694431781768798828e-01,1.000000000000000020816681711721685132943093776703e-02
4.600000000000002420286193682841258123517036437988e-01,-5.363674022525839052422114150431298185139894485474e-02,-6.311802244366038205924951398628763854503631591797e-01,1.000000000000000020816681711721685132943093776703e-02
4.700000000000002509104035652853781357407569885254e-01,-6.412934932532726728382499459257815033197402954102e-02,-6.302771904612163300640759189263917505741119384766e-01,1.000000000000000020816681711721685132943093776703e-02
4.800000000000002597921877622866304591298103332520e-01,-7.461165226602521627352615496420185081660747528076e-02,-6.292126943762965662898523078183643519878387451172e-01,1.000000000000000020816681711721685132943093776703e-02
4.900000000000002686739719592878827825188636779785e-01,-8.508134580495198273641932473765336908400058746338e-02,-6.279868421048714344223640182462986558675765991211e-01,1.000000000000000020816681711721685132943093776703e-02
5.000000000000002220446049250313080847263336181641e-01,-9.553612094050008274326302171175484545528888702393e-02,-6.265997506139402428715357018518261611461639404297e-01,1.000000000000000020816681711721685132943093776703e-02
