time,u0,u1,tau
0.000000000000000000000000000000000000000000000000e+00,4.000000000000001332267629550187848508358001708984e-01,0.000000000000000000000000000000000000000000000000e+00,1.000000000000000020816681711721685132943093776703e-02
1.000000000000000020816681711721685132943093776703e-02,3.999946242680095243038351782161043956875801086426e-01,-2.400015440594914419708549857546131534036248922348e-03,1.000000000000000020816681711721685132943093776703e-02
2.000000000000000041633363423443370265886187553406e-02,3.999729162980472652044738879340002313256263732910e-01,-4.800095571979978020804580296498897951096296310425e-03,1.000000000000000020816681711721685132943093776703e-02
2.999999999999999888977697537484345957636833190918e-02,3.999348591974286604155963686935137957334518432617e-01,-7.200135662227203497964822531685058493167161941528e-03,1.000000000000000020816681711721685132943093776703e-02
4.000000000000000083266726846886740531772375106812e-02,3.998804372375258653349305859592277556657791137695e-01,-9.600030664416664763494146939137863228097558021545e-03,1.000000000000000020816681711721685132943093776703e-02
5.000000000000000277555756156289135105907917022705e-02,3.998096358614030565448160814412403851747512817383e-01,-1.199967523631470175948798839726805454120039939880e-02,1.000000000000000020816681711721685132943093776703e-02
6.000000000000000471844785465691529680043458938599e-02,3.997224416910009070491582860995549708604812622070e-01,-1.439896376024826091244435133376100566238164901733e-02,1.000000000000000020816681711721685132943093776703e-02
7.000000000000000666133814775093924254179000854492e-02,3.996188425338653149587742063886253163218498229980e-01,-1.679779036316482107582537253165355650708079338074e-02,1.000000000000000020816681711721685132943093776703e-02
8.000000000000000166533453693773481063544750213623e-02,3.994988273894164998445432956941658630967140197754e-01,-1.919604893686721255874338964986236533150076866150e-02,1.000000000000000020816681711721685132943093776703e-02
8.999999999999999666933092612453037872910499572754e-02,3.993623864547533042212990039843134582042694091797e-01,-2.159363315841250283155794420508755138143897056580e-02,1.000000000000000020816681711721685132943093776703e-02
9.999999999999999167332731531132594682276248931885e-02,3.992095111299902021606555990729248151183128356934e-01,-2.399043651066397331295121375660528428852558135986e-02,1.000000000000000020816681711721685132943093776703e-02
1.099999999999999866773237044981215149164199829102e-01,3.990401940231219080068569837749237194657325744629e-01,-2.638635230298511102908776138065150007605552673340e-02,1.000000000000000020816681711721685132943093776703e-02
1.199999999999999816813200936849170830100774765015e-01,3.988544289544136423053544149297522380948066711426e-01,-2.878127369206441577009769616779522038996219635010e-02,1.000000000000000020816681711721685132943093776703e-02
1.299999999999999766853164828717126511037349700928e-01,3.986522109603127805854683174402453005313873291016e-01,-3.117509370285971928571377986827428685501217842102e-02,1.000000000000000020816681711721685132943093776703e-02
1.399999999999999855671006798729649744927883148193e-01,3.984335362968801086402947930764639750123023986816e-01,-3.356770524965060203959055229461228009313344955444e-02,1.000000000000000020816681711721685132943093776703e-02
1.499999999999999944488848768742172978818416595459e-01,3.981984024427375756793878736061742529273033142090e-01,-3.595900115718742018344755706493742763996124267578e-02,1.000000000000000020816681711721685132943093776703e-02
1.600000000000000033306690738754696212708950042725e-01,3.979468081015308245085293492593336850404739379883e-01,-3.834887418192534785932323870838445145636796951294e-02,1.000000000000000020816681711721685132943093776703e-02
1.700000000000000122124532708767219446599483489990e-01,3.976787532039040562459319971821969375014305114746e-01,-4.073721703333181565209741847866098396480083465576e-02,1.000000000000000020816681711721685132943093776703e-02
1.800000000000000210942374678779742680490016937256e-01,3.973942389089861748630028159823268651962280273438e-01,-4.312392239525555948098656244837911799550056457520e-02,1.000000000000000020816681711721685132943093776703e-02
1.900000000000000299760216648792265914380550384521e-01,3.970932676053868237708854849188355728983879089355e-01,-4.550888294734560524101851797240669839084148406982e-02,1.000000000000000020816681711721685132943093776703e-02
2.000000000000000388578058618804789148271083831787e-01,3.967758429117009266740012662921799346804618835449e-01,-4.789199138650823001084333441212947946041822433472e-02,1.000000000000000020816681711721685132943093776703e-02
2.100000000000000477395900588817312382161617279053e-01,3.964419696765215661571346572600305080413818359375e-01,-5.027314044839015227950085318298079073429107666016e-02,1.000000000000000020816681711721685132943093776703e-02
2.200000000000000566213742558829835616052150726318e-01,3.960916539779603673387953222118085250258445739746e-01,-5.265222292887596078347911543460213579237461090088e-02,1.000000000000000020816681711721685132943093776703e-02
2.300000000000000655031584528842358849942684173584e-01,3.957249031226757196577636932488530874252319335938e-01,-5.502913170558793726216961772479407954961061477661e-02,1.000000000000000020816681711721685132943093776703e-02
2.400000000000000743849426498854882083833217620850e-01,3.953417256444085037259128512232564389705657958984e-01,-5.740375975937622027300832883156544994562864303589e-02,1.000000000000000020816681711721685132943093776703e-02
2.500000000000000555111512312578270211815834045410e-01,3.949421313020262669368776187184266746044158935547e-01,-5.977600019578749312998411369335372000932693481445e-02,1.000000000000000020816681711721685132943093776703e-02
2.600000000000000643929354282590793445706367492676e-01,3.945261310770764584532344088074751198291778564453e-01,-6.214574626650014310680347762172459624707698822021e-02,1.000000000000000020816681711721685132943093776703e-02
2.700000000000000732747196252603316679596900939941e-01,3.940937371708498893063676860037958249449729919434e-01,-6.451289139071400557945423770433990284800529479980e-02,1.000000000000000020816681711721685132943093776703e-02
2.800000000000000821565038222615839913487434387207e-01,3.936449630009557498766525895916856825351715087891e-01,-6.687732917648277208844120877984096296131610870361e-02,1.000000000000000020816681711721685132943093776703e-02
2.900000000000000910382880192628363147377967834473e-01,3.931798231974096835550369632983347401022911071777e-01,-6.923895344197716905654260699520818889141082763672e-02,1.000000000000000020816681711721685132943093776703e-02
3.000000000000000999200722162640886381268501281738e-01,3.926983335982373590766769666515756398439407348633e-01,-7.159765823666701389793587395615759305655956268311e-02,1.000000000000000020816681711721685132943093776703e-02
3.100000000000001088018564132653409615159034729004e-01,3.922005112445954289057681307895109057426452636719e-01,-7.395333786241040097131360653293086215853691101074e-02,1.000000000000000020816681711721685132943093776703e-02
3.200000000000001176836406102665932849049568176270e-01,3.916863743754124826956797278398880735039710998535e-01,-7.630588689443823513514075784769374877214431762695e-02,1.000000000000000020816681711721685132943093776703e-02
3.300000000000001265654248072678456082940101623535e-01,3.911559424215528824042564792762277647852897644043e-01,-7.865520020222237229656769841312780044972896575928e-02,1.000000000000000020816681711721685132943093776703e-02
3.400000000000001354472090042690979316830635070801e-01,3.906092359995066987110590162046719342470169067383e-01,-8.100117297021579287896742016528150998055934906006e-02,1.000000000000000020816681711721685132943093776703e-02
3.500000000000001443289932012703502550721168518066e-01,3.900462769046090238944657357933465391397476196289e-01,-8.334370071845322025527735831929021514952182769775e-02,1.000000000000000020816681711721685132943093776703e-02
3.600000000000001532107773982716025784611701965332e-01,3.894670881037922693934660856029950082302093505859e-01,-8.568267932300072109441657630668487399816513061523e-02,1.000000000000000020816681711721685132943093776703e-02
3.700000000000001620925615952728549018502235412598e-01,3.888716937278757779239413139293901622295379638672e-01,-8.801800503624294946813932938312063924968242645264e-02,1.000000000000000020816681711721685132943093776703e-02
3.800000000000001709743457922741072252392768859863e-01,3.882601190633963583742627179162809625267982482910e-01,-9.034957450699668268789821468089940026402473449707e-02,1.000000000000000020816681711721685132943093776703e-02
3.900000000000001798561299892753595486283302307129e-01,3.876323905439849060172718964167870581150054931641e-01,-9.267728480043956051925846395533881150186061859131e-02,1.000000000000000020816681711721685132943093776703e-02
4.000000000000001887379141862766118720173835754395e-01,3.869885357412934379084390457137487828731536865234e-01,-9.500103341784293942140493527404032647609710693359e-02,1.000000000000000020816681711721685132943093776703e-02
4.100000000000001976196983832778641954064369201660e-01,3.863285833554775949849613425612915307283401489258e-01,-9.732071831609789835937363022821955382823944091797e-02,1.000000000000000020816681711721685132943093776703e-02
4.200000000000002065014825802791165187954902648926e-01,3.856525632052401619809245403303066268563270568848e-01,-9.963623792702366865903229609102709218859672546387e-02,1.000000000000000020816681711721685132943093776703e-02
4.300000000000002153832667772803688421845436096191e-01,3.849605062174407121844410539779346436262130737305e-01,-1.019474911764477881304102879767015110701322555542e-01,1.000000000000000020816681711721685132943093776703e-02
4.400000000000002242650509742816211655735969543457e-01,3.842524444162773722410975096863694489002227783203e-01,-1.042543775030474462184315598278772085905075073242e-01,1.000000000000000020816681711721685132943093776703e-02
4.500000000000002331468351712828734889626502990723e-01,3.835284109120468132303471975319553166627883911133e-01,-1.065567968769417089847095780896779615432024002075e-01,1.000000000000000020816681711721685132943093776703e-02
4.600000000000002420286193682841258123517036437988e-01,3.827884398894885187303316342877224087715148925781e-01,-1.088546498180243266018507597436837386339902877808e-01,1.000000000000000020816681711721685132943093776703e-02
4.700000000000002509104035652853781357407569885254e-01,3.820325665957197691646740622672950848937034606934e-01,-1.111478374140271868641960395507339853793382644653e-01,1.000000000000000020816681711721685132943093776703e-02
4.800000000000002597921877622866304591298103332520e-01,3.812608273277681703028463289228966459631919860840e-01,-1.134362613383044643411423635370738338679075241089e-01,1.000000000000000020816681711721685132943093776703e-02
4.900000000000002686739719592878827825188636779785e-01,3.804732594197086648080130544258281588554382324219e-01,-1.157198238673277645993664464185712859034538269043e-01,1.000000000000000020816681711721685132943093776703e-02
5.000000000000002220446049250313080847263336181641e-01,3.796699012294118547039545319421449676156044006348e-01,-1.179984278978828404760292869468685239553451538086e-01,1.000000000000000020816681711721685132943093776703e-02
