time,u0,u1,tau
0.000000000000000000000000000000000000000000000000e+00,-3.999999999999999111821580299874767661094665527344e-01,3.000000000000000444089209850062616169452667236328e-01,1.000000000000000020816681711721685132943093776703e-02
1.000000000000000020816681711721685132943093776703e-02,-3.968714171091312636896475396497407928109169006348e-01,3.038395847378298486596293059847084805369377136230e-01,1.000000000000000020816681711721685132943093776703e-02
2.000000000000000041633363423443370265886187553406e-02,-3.937043322796776045890965178841724991798400878906e-01,3.076472138263731670448919430782552808523178100586e-01,1.000000000000000020816681711721685132943093776703e-02
2.999999999999999888977697537484345957636833190918e-02,-3.904991095825351421488846881402423605322837829590e-01,3.114225679155209758341982251295121386647224426270e-01,1.000000000000000020816681711721685132943093776703e-02
4.000000000000000083266726846886740531772375106812e-02,-3.872561151296690096224040189554216340184211730957e-01,3.151653334788853677572717515431577339768409729004e-01,1.000000000000000020816681711721685132943093776703e-02
5.000000000000000277555756156289135105907917022705e-02,-3.839757169411810999726242243923479691147804260254e-01,3.188752028073875699476502632023766636848449707031e-01,1.000000000000000020816681711721685132943093776703e-02
6.000000000000000471844785465691529680043458938599e-02,-3.806582848131922491852208167983917519450187683105e-01,3.225518739986826810550724076165352016687393188477e-01,1.000000000000000020816681711721685132943093776703e-02
7.000000000000000666133814775093924254179000854492e-02,-3.773041901866487912720060649007791653275489807129e-01,3.261950509424423882975929700478445738554000854492e-01,1.000000000000000020816681711721685132943093776703e-02
8.000000000000000166533453693773481063544750213623e-02,-3.739138060171631749994958227034658193588256835938e-01,3.298044433015191456703973926778417080640792846680e-01,1.000000000000000020816681711721685132943093776703e-02
8.999999999999999666933092612453037872910499572754e-02,-3.704875066459968335763619506906252354383468627930e-01,3.333797664890200129761410607898142188787460327148e-01,1.000000000000000020816681711721685132943093776703e-02
9.999999999999999167332731531132594682276248931885e-02,-3.670256676722937205781249758729245513677597045898e-01,3.369207416413208533434442415455123409628868103027e-01,1.000000000000000020816681711721685132943093776703e-02
1.099999999999999866773237044981215149164199829102e-01,-3.635286658266707049413923868996789678931236267090e-01,3.404270955870550285915498989197658374905586242676e-01,1.000000000000000020816681711721685132943093776703e-02
1.199999999999999816813200936849170830100774765015e-01,-3.599968788462717395049139668117277324199676513672e-01,3.438985608121143400239816401153802871704101562500e-01,1.000000000000000020816681711721685132943093776703e-02
1.299999999999999766853164828717126511037349700928e-01,-3.564306853513896644614078468293882906436920166016e-01,3.473348754207033484142641555081354454159736633301e-01,1.000000000000000020816681711721685132943093776703e-02
1.399999999999999855671006798729649744927883148193e-01,-3.528304647237604507736818959529045969247817993164e-01,3.507357830924906494374226895160973072052001953125e-01,1.000000000000000020816681711721685132943093776703e-02
1.499999999999999944488848768742172978818416595459e-01,-3.491965969866323016290721170662436634302139282227e-01,3.541010330359047331150179616088280454277992248535e-01,1.000000000000000020816681711721685132943093776703e-02
1.600000000000000033306690738754696212708950042725e-01,-3.455294626867109752943463263363810256123542785645e-01,3.574303799376253309993956008838722482323646545410e-01,1.000000000000000020816681711721685132943093776703e-02
1.700000000000000122124532708767219446599483489990e-01,-3.418294427780821931328603113797726109623908996582e-01,3.607235839083232642465759454353246837854385375977e-01,1.000000000000000020816681711721685132943093776703e-02
1.800000000000000210942374678779742680490016937256e-01,-3.380969185082096650774019508389756083488464355469e-01,3.639804104247061355970060958497924730181694030762e-01,1.000000000000000020816681711721685132943093776703e-02
1.900000000000000299760216648792265914380550384521e-01,-3.343322713061069317852513904654188081622123718262e-01,3.672006302679294287294453624781453981995582580566e-01,1.000000000000000020816681711721685132943093776703e-02
2.000000000000000388578058618804789148271083831787e-01,-3.305358826727787247001799642021069303154945373535e-01,3.703840194584361311669340466323774307966232299805e-01,1.000000000000000020816681711721685132943093776703e-02
2.100000000000000477395900588817312382161617279053e-01,-3.267081340740273232015056237287353724241256713867e-01,3.735303591872907724713570587482536211609840393066e-01,1.000000000000000020816681711721685132943093776703e-02
2.200000000000000566213742558829835616052150726318e-01,-3.228494068357165014404586145246867090463638305664e-01,3.766394357440763784872217456722864881157875061035e-01,1.000000000000000020816681711721685132943093776703e-02
2.300000000000000655031584528842358849942684173584e-01,-3.189600820415854354195062114740721881389617919922e-01,3.797110404414263951089480997325154021382331848145e-01,1.000000000000000020816681711721685132943093776703e-02
2.400000000000000743849426498854882083833217620850e-01,-3.150405404337022208238749954034574329853057861328e-01,3.827449695362659665143212350812973454594612121582e-01,1.000000000000000020816681711721685132943093776703e-02
2.500000000000000555111512312578270211815834045410e-01,-3.110911623156451533134259079815819859504699707031e-01,3.857410241478398393866200422053225338459014892578e-01,1.000000000000000020816681711721685132943093776703e-02
2.600000000000000643929354282590793445706367492676e-01,-3.071123274584993678715250098321121186017990112305e-01,3.886990101726069402054974943894194439053535461426e-01,1.000000000000000020816681711721685132943093776703e-02
2.700000000000000732747196252603316679596900939941e-01,-3.031044150097522149600592911156127229332923889160e-01,3.916187381960841706884934865229297429323196411133e-01,1.000000000000000020816681711721685132943093776703e-02
2.800000000000000821565038222615839913487434387207e-01,-2.990678034051718614527715089934645220637321472168e-01,3.945000234017249085560763433022657409310340881348e-01,1.000000000000000020816681711721685132943093776703e-02
2.900000000000000910382880192628363147377967834473e-01,-2.950028702837489968935358319868100807070732116699e-01,3.973426854769196991945534591650357469916343688965e-01,1.000000000000000020816681711721685132943093776703e-02
3.000000000000000999200722162640886381268501281738e-01,-2.909099924057812480704399149544769898056983947754e-01,4.001465485162097324156604827294358983635902404785e-01,1.000000000000000020816681711721685132943093776703e-02
3.100000000000001088018564132653409615159034729004e-01,-2.867895455741776844504897781007457524538040161133e-01,4.029114409218052528238729337317636236548423767090e-01,1.000000000000000020816681711721685132943093776703e-02
3.200000000000001176836406102665932849049568176270e-01,-2.826419045590579659510410692746518179774284362793e-01,4.056371953015044939938604784401832148432731628418e-01,1.000000000000000020816681711721685132943093776703e-02
3.300000000000001265654248072678456082940101623535e-01,-2.784674430257192967452795073768356814980506896973e-01,4.083236483641097813723774834215873852372169494629e-01,1.000000000000000020816681711721685132943093776703e-02
3.400000000000001354472090042690979316830635070801e-01,-2.742665334660424059087802106660092249512672424316e-01,4.109706408124404464210499554610578343272209167480e-01,1.000000000000000020816681711721685132943093776703e-02
3.500000000000001443289932012703502550721168518066e-01,-2.700395471334044450451017382874852046370506286621e-01,4.135780172340443039402657632308546453714370727539e-01,1.000000000000000020816681711721685132943093776703e-02
3.600000000000001532107773982716025784611701965332e-01,-2.657868539811661379168583607679465785622596740723e-01,4.161456259897109988266095115250209346413612365723e-01,1.000000000000000020816681711721685132943093776703e-02
3.700000000000001620925615952728549018502235412598e-01,-2.615088226047965758169766559149138629436492919922e-01,4.186733190998926379400302266731159761548042297363e-01,1.000000000000000020816681711721685132943093776703e-02
3.800000000000001709743457922741072252392768859863e-01,-2.572058201876982752587252889497904106974601745605e-01,4.211609521291395097364329558331519365310668945312e-01,1.000000000000000020816681711721685132943093776703e-02
3.900000000000001798561299892753595486283302307129e-01,-2.528782124507915063382768039446091279387474060059e-01,4.236083840686599155667124705360038205981254577637e-01,1.000000000000000020816681711721685132943093776703e-02
4.000000000000001887379141862766118720173835754395e-01,-2.485263636059154290780526253001880832016468048096e-01,4.260154772171152459669940526509890332818031311035e-01,1.000000000000000020816681711721685132943093776703e-02
4.100000000000001976196983832778641954064369201660e-01,-2.441506363131008272571165207409649156033992767334e-01,4.283820970597627120213246598723344504833221435547e-01,1.000000000000000020816681711721685132943093776703e-02
4.200000000000002065014825802791165187954902648926e-01,-2.397513916417666757219251394417369738221168518066e-01,4.307081121460603623241070181393297389149665832520e-01,1.000000000000000020816681711721685132943093776703e-02
4.300000000000002153832667772803688421845436096191e-01,-2.353289890358907232581486823619343340396881103516e-01,4.329933939658499042479888885281980037689208984375e-01,1.000000000000000020816681711721685132943093776703e-02
4.400000000000002242650509742816211655735969543457e-01,-2.308837862832015253022888146006152965128421783447e-01,4.352378168242348466243640814354876056313514709473e-01,1.000000000000000020816681711721685132943093776703e-02
4.500000000000002331468351712828734889626502990723e-01,-2.264161394884367517477130604675039649009704589844e-01,4.374412577152722025886077972245402634143829345703e-01,1.000000000000000020816681711721685132943093776703e-02
4.600000000000002420286193682841258123517036437988e-01,-2.219264030507104301648269029101356863975524902344e-01,4.396035961945980452547644290461903437972068786621e-01,1.000000000000000020816681711721685132943093776703e-02
4.700000000000002509104035652853781357407569885254e-01,-2.174149296450289814419676304169115610420703887939e-01,4.417247142511078750182207386387744918465614318848e-01,1.000000000000000020816681711721685132943093776703e-02
4.800000000000002597921877622866304591298103332520e-01,-2.128820702079934623629497991714742965996265411377e-01,4.438044961778142005748293286160333082079887390137e-01,1.000000000000000020816681711721685132943093776703e-02
4.900000000000002686739719592878827825188636779785e-01,-2.083281739277227373463574622292071580886840820312e-01,4.458428284420047349456694973923731595277786254883e-01,1.000000000000000020816681711721685132943093776703e-02
5.000000000000002220446049250313080847263336181641e-01,-2.037535882380298313254485265133553184568881988525e-01,4.478395995548256625085059567936696112155914306641e-01,1.000000000000000020816681711721685132943093776703e-02
