time,u0,u1,tau
0.000000000000000000000000000000000000000000000000e+00,-5.999999999999999777955395074968691915273666381836e-01,8.000000000000000444089209850062616169452667236328e-01,1.000000000000000020816681711721685132943093776703e-02
1.000000000000000020816681711721685132943093776703e-02,-5.661343388178191604609423848160076886415481567383e-01,8.207003584738792323349798607523553073406219482422e-01,1.000000000000000020816681711721685132943093776703e-02
2.000000000000000041633363423443370265886187553406e-02,-5.317684348069953159665601560845971107482910156250e-01,8.398667292653294591531221158220432698726654052734e-01,1.000000000000000020816681711721685132943093776703e-02
2.999999999999999888977697537484345957636833190918e-02,-4.969638274995538118616877909516915678977966308594e-01,8.575060730092907146371317139710299670696258544922e-01,1.000000000000000020816681711721685132943093776703e-02
4.000000000000000083266726846886740531772375106812e-02,-4.617808729512117849047569961840054020285606384277e-01,8.736280371902187535937400753027759492397308349609e-01,1.000000000000000020816681711721685132943093776703e-02
5.000000000000000277555756156289135105907917022705e-02,-4.262786011161389665424792383419116958975791931152e-01,8.882448056353667853457523051474709063768386840820e-01,1.000000000000000020816681711721685132943093776703e-02
6.000000000000000471844785465691529680043458938599e-02,-3.905145824369052331981322367937536910176277160645e-01,9.013709232739400833978038463101256638765335083008e-01,1.000000000000000020816681711721685132943093776703e-02
7.000000000000000666133814775093924254179000854492e-02,-3.545448082220725716240394831402227282524108886719e-01,9.130231006774875979203898168634623289108276367188e-01,1.000000000000000020816681711721685132943093776703e-02
8.000000000000000166533453693773481063544750213623e-02,-3.184235885299376844770335992507170885801315307617e-01,9.232200033272226491476430965121835470199584960938e-01,1.000000000000000020816681711721685132943093776703e-02
8.999999999999999666933092612453037872910499572754e-02,-2.822034703625764251455620978958904743194580078125e-01,9.319820307523472013855325712938793003559112548828e-01,1.000000000000000020816681711721685132943093776703e-02
9.999999999999999167332731531132594682276248931885e-02,-2.459351780456521252560264656494837254285812377930e-01,9.393310906718306263485374074662104249000549316406e-01,1.000000000000000020816681711721685132943093776703e-02
1.099999999999999866773237044981215149164199829102e-01,-2.096675767667230128044053572011762298643589019775e-01,9.452903730800108483833810169016942381858825683594e-01,1.000000000000000020816681711721685132943093776703e-02
1.199999999999999816813200936849170830100774765015e-01,-1.734476594009446981381472596694948151707649230957e-01,9.498841288776975755325793215888552367687225341797e-01,1.000000000000000020816681711721685132943093776703e-02
1.299999999999999766853164828717126511037349700928e-01,-1.373205559928864227803302355823689140379428863525e-01,9.531374572003989964485981545294634997844696044922e-01,1.000000000000000020816681711721685132943093776703e-02
1.399999999999999855671006798729649744927883148193e-01,-1.013295646033129104868208969492116011679172515869e-01,9.550761050679912322891595977125689387321472167969e-01,1.000000000000000020816681711721685132943093776703e-02
1.499999999999999944488848768742172978818416595459e-01,-6.551620167934135707810128224082291126251220703125e-02,9.557262824068161188861836308205965906381607055664e-01,1.000000000000000020816681711721685132943093776703e-02
1.600000000000000033306690738754696212708950042725e-01,-2.992026966799464504642713791326968930661678314209e-02,9.551144949028719244310536851116921752691268920898e-01,1.000000000000000020816681711721685132943093776703e-02
1.700000000000000122124532708767219446599483489990e-01,5.420060735752262048858796106287627480924129486084e-03,9.532673965557059148068219656124711036682128906250e-01,1.000000000000000020816681711721685132943093776703e-02
1.800000000000000210942374678779742680490016937256e-01,4.046815654123978034384379043331136927008628845215e-02,9.502116632341021107421852320840116590261459350586e-01,1.000000000000000020816681711721685132943093776703e-02
1.900000000000000299760216648792265914380550384521e-01,7.518881958137883791959410473282332532107830047607e-02,9.459738879992062310364531185769010335206985473633e-01,1.000000000000000020816681711721685132943093776703e-02
2.000000000000000388578058618804789148271083831787e-01,1.095481778137476630563540425100654829293489456177e-01,9.405804984665754320261044085782486945390701293945e-01,1.000000000000000020816681711721685132943093776703e-02
2.100000000000000477395900588817312382161617279053e-01,1.435135737936123201397009552238159812986850738525e-01,9.340576960303875742042123420105781406164169311523e-01,1.000000000000000020816681711721685132943093776703e-02
2.200000000000000566213742558829835616052150726318e-01,1.770534532215932155274629167251987382769584655762e-01,9.264314163723839090636147375334985554218292236328e-01,1.000000000000000020816681711721685132943093776703e-02
2.300000000000000655031584528842358849942684173584e-01,2.101372563282251915151022103600553236901760101318e-01,9.177273103245804364291871024761348962783813476562e-01,1.000000000000000020816681711721685132943093776703e-02
2.400000000000000743849426498854882083833217620850e-01,2.427353146723399690554145990972756408154964447021e-01,9.079707438464503788111414905870333313941955566406e-01,1.000000000000000020816681711721685132943093776703e-02
2.500000000000000555111512312578270211815834045410e-01,2.748187557070018716132153713260777294635772705078e-01,8.971868156114297665482126831193454563617706298828e-01,1.000000000000000020816681711721685132943093776703e-02
2.600000000000000643929354282590793445706367492676e-01,3.063594172113619507058501767460256814956665039062e-01,8.854003904712711703339778068766463547945022583008e-01,1.000000000000000020816681711721685132943093776703e-02
2.700000000000000732747196252603316679596900939941e-01,3.373297734039122919291742164205061271786689758301e-01,8.726361468771999252425075610517524182796478271484e-01,1.000000000000000020816681711721685132943093776703e-02
2.800000000000000821565038222615839913487434387207e-01,3.677028742460957122517584139131940901279449462891e-01,8.589186361818086368202784797176718711853027343750e-01,1.000000000000000020816681711721685132943093776703e-02
2.900000000000000910382880192628363147377967834473e-01,3.974522991185102105404780559183564037084579467773e-01,8.442723516237158332131684801424853503704071044922e-01,1.000000000000000020816681711721685132943093776703e-02
3.000000000000000999200722162640886381268501281738e-01,4.265521257084430306605327132274396717548370361328e-01,8.287218047076461147071313462220132350921630859375e-01,1.000000000000000020816681711721685132943093776703e-02
3.100000000000001088018564132653409615159034729004e-01,4.549769145909020040541292928537586703896522521973e-01,8.122916066360829079329164414957631379365921020508e-01,1.000000000000000020816681711721685132943093776703e-02
3.200000000000001176836406102665932849049568176270e-01,4.827017096200518775361842926940880715847015380859e-01,7.950065524260725435823360385256819427013397216797e-01,1.000000000000000020816681711721685132943093776703e-02
3.300000000000001265654248072678456082940101623535e-01,5.097020538792761401580833080515731126070022583008e-01,7.768917053577577558343136843177489936351776123047e-01,1.000000000000000020816681711721685132943093776703e-02
3.400000000000001354472090042690979316830635070801e-01,5.359540205722819194988915114663541316986083984375e-01,7.579724794517002095517455018125474452972412109375e-01,1.000000000000000020816681711721685132943093776703e-02
3.500000000000001443289932012703502550721168518066e-01,5.614342578821317486514885786164086312055587768555e-01,7.382747177618482758987283887108787894248962402344e-01,1.000000000000000020816681711721685132943093776703e-02
3.600000000000001532107773982716025784611701965332e-01,5.861200464881536342787171633972320705652236938477e-01,7.178247644014921213795332732843235135078430175781e-01,1.000000000000000020816681711721685132943093776703e-02
3.700000000000001620925615952728549018502235412598e-01,6.099893681213977014721194791491143405437469482422e-01,6.966495283912597091813267979887314140796661376953e-01,1.000000000000000020816681711721685132943093776703e-02
3.800000000000001709743457922741072252392768859863e-01,6.330209832670286029809858519001863896846771240234e-01,6.747765376304615259073216293472796678543090820312e-01,1.000000000000000020816681711721685132943093776703e-02
3.900000000000001798561299892753595486283302307129e-01,6.551945158959565640444111522810999304056167602539e-01,6.522339815437114829421716422075405716896057128906e-01,1.000000000000000020816681711721685132943093776703e-02
4.000000000000001887379141862766118720173835754395e-01,6.764905429365573041877723881043493747711181640625e-01,6.290507412398441688949901617888826876878738403320e-01,1.000000000000000020816681711721685132943093776703e-02
4.100000000000001976196983832778641954064369201660e-01,6.968906860876303843710388719046022742986679077148e-01,6.052564063340343247787700420303735882043838500977e-01,1.000000000000000020816681711721685132943093776703e-02
4.200000000000002065014825802791165187954902648926e-01,7.163777035310067153872637391032185405492782592773e-01,5.808812779192817910001167547306977212429046630859e-01,1.000000000000000020816681711721685132943093776703e-02
4.300000000000002153832667772803688421845436096191e-01,7.349355791292759843003068453981541097164154052734e-01,5.559563575211142749665782503143418580293655395508e-01,1.000000000000000020816681711721685132943093776703e-02
4.400000000000002242650509742816211655735969543457e-01,7.525496067910605324513539926556404680013656616211e-01,5.305133222193502140484611118154134601354598999023e-01,1.000000000000000020816681711721685132943093776703e-02
4.500000000000002331468351712828734889626502990723e-01,7.692064678502980035190716989745851606130599975586e-01,5.045844864622170966583780682412907481193542480469e-01,1.000000000000000020816681711721685132943093776703e-02
4.600000000000002420286193682841258123517036437988e-01,7.848942995313971104920369725732598453760147094727e-01,4.782027514200263285104597343888599425554275512695e-01,1.000000000000000020816681711721685132943093776703e-02
4.700000000000002509104035652853781357407569885254e-01,7.996027528505136316994139633607119321823120117188e-01,4.514015430174108112204578446835512295365333557129e-01,1.000000000000000020816681711721685132943093776703e-02
4.800000000000002597921877622866304591298103332520e-01,8.133230386239007625448493854491971433162689208984e-01,4.242147400352918595878293217538157477974891662598e-01,1.000000000000000020816681711721685132943093776703e-02
4.900000000000002686739719592878827825188636779785e-01,8.260479606049767609121659006632398813962936401367e-01,3.966765938783034517456371759180910885334014892578e-01,1.000000000000000020816681711721685132943093776703e-02
5.000000000000002220446049250313080847263336181641e-01,8.377719351390675583957090566400438547134399414062e-01,3.688216417544095127034609049587743356823921203613e-01,1.000000000000000020816681711721685132943093776703e-02
