time,u0,u1,tau
0.000000000000000000000000000000000000000000000000e+00,-2.999999999999999333866185224906075745820999145508e-01,-1.999999999999999555910790149937383830547332763672e-01,1.000000000000000020816681711721685132943093776703e-02
1.000000000000000020816681711721685132943093776703e-02,-3.011207536912541282703159595257602632045745849609e-01,-1.985620572137941908241742794416495598852634429932e-01,1.000000000000000020816681711721685132943093776703e-02
2.000000000000000041633363423443370265886187553406e-02,-3.022349600776991773720681067061377689242362976074e-01,-1.971182754557622984759035489332745783030986785889e-01,1.000000000000000020816681711721685132943093776703e-02
2.999999999999999888977697537484345957636833190918e-02,-3.033425667630128552687551746203098446130752563477e-01,-1.956686611962178967694114817277295514941215515137e-01,1.000000000000000020816681711721685132943093776703e-02
4.000000000000000083266726846886740531772375106812e-02,-3.044435210100652211551164327829610556364059448242e-01,-1.942132213833511755751715099904686212539672851562e-01,1.000000000000000020816681711721685132943093776703e-02
5.000000000000000277555756156289135105907917022705e-02,-3.055377697480436416377358455065404996275901794434e-01,-1.927519634517491087244422942603705450892448425293e-01,1.000000000000000020816681711721685132943093776703e-02
6.000000000000000471844785465691529680043458938599e-02,-3.066252595797521185438938573497580364346504211426e-01,-1.912848953308329269518139881256502121686935424805e-01,1.000000000000000020816681711721685132943093776703e-02
7.000000000000000666133814775093924254179000854492e-02,-3.077059367890842556114705530490027740597724914551e-01,-1.898120254532088546639556625450495630502700805664e-01,1.000000000000000020816681711721685132943093776703e-02
8.000000000000000166533453693773481063544750213623e-02,-3.087797473486694754818415731278946623206138610840e-01,-1.883333627629287798654900143446866422891616821289e-01,1.000000000000000020816681711721685132943093776703e-02
8.999999999999999666933092612453037872910499572754e-02,-3.098466369276917098396495475753908976912498474121e-01,-1.868489167236570269725604021004983223974704742432e-01,1.000000000000000020816681711721685132943093776703e-02
9.999999999999999167332731531132594682276248931885e-02,-3.109065508998798965656362724985228851437568664551e-01,-1.853586973267396798004114089053473435342311859131e-01,1.000000000000000020816681711721685132943093776703e-02
1.099999999999999866773237044981215149164199829102e-01,-3.119594343516694512352671608823584392666816711426e-01,-1.838627150991725689443967439729021862149238586426e-01,1.000000000000000020816681711721685132943093776703e-02
1.199999999999999816813200936849170830100774765015e-01,-3.130052320905336027401233423006488010287284851074e-01,-1.823609811114643430851600669484469108283519744873e-01,1.000000000000000020816681711721685132943093776703e-02
1.299999999999999766853164828717126511037349700928e-01,-3.140438886534838713870954052254091948270797729492e-01,-1.808535069853907939485537781365565024316310882568e-01,1.000000000000000020816681711721685132943093776703e-02
1.399999999999999855671006798729649744927883148193e-01,-3.150753483157384682300516942632384598255157470703e-01,-1.793403049016367989398901272579678334295749664307e-01,1.000000000000000020816681711721685132943093776703e-02
1.499999999999999944488848768742172978818416595459e-01,-3.160995550995573388775028433883562684059143066406e-01,-1.778213876073218568940603745431872084736824035645e-01,1.000000000000000020816681711721685132943093776703e-02
1.600000000000000033306690738754696212708950042725e-01,-3.171164527832426860420866887579904869198799133301e-01,-1.762967684234056919834188192908186465501785278320e-01,1.000000000000000020816681711721685132943093776703e-02
1.700000000000000122124532708767219446599483489990e-01,-3.181259849103035275419415484066121280193328857422e-01,-1.747664612519700400028455078427214175462722778320e-01,1.000000000000000020816681711721685132943093776703e-02
1.800000000000000210942374678779742680490016937256e-01,-3.191280947987829019751870873733423650264739990234e-01,-1.732304805833726202290989704124513082206249237061e-01,1.000000000000000020816681711721685132943093776703e-02
1.900000000000000299760216648792265914380550384521e-01,-3.201227255507460567329758305277209728956222534180e-01,-1.716888415032697956519314175238832831382751464844e-01,1.000000000000000020816681711721685132943093776703e-02
2.000000000000000388578058618804789148271083831787e-01,-3.211098200619280085277296166168525815010070800781e-01,-1.701415596995038692629265142386429943144321441650e-01,1.000000000000000020816681711721685132943093776703e-02
2.100000000000000477395900588817312382161617279053e-01,-3.220893210315385890574191307678120210766792297363e-01,-1.685886514688513249105028535268502309918403625488e-01,1.000000000000000020816681711721685132943093776703e-02
2.200000000000000566213742558829835616052150726318e-01,-3.230611709722234770048032714839791879057884216309e-01,-1.670301337236280714293457094754558056592941284180e-01,1.000000000000000020816681711721685132943093776703e-02
2.300000000000000655031584528842358849942684173584e-01,-3.240253122201787183698229455330874770879745483398e-01,-1.654660239981480818194370385754154995083808898926e-01,1.000000000000000020816681711721685132943093776703e-02
2.400000000000000743849426498854882083833217620850e-01,-3.249816869454171253117635842500021681189537048340e-01,-1.638963404550313196494926160085014998912811279297e-01,1.000000000000000020816681711721685132943093776703e-02
2.500000000000000555111512312578270211815834045410e-01,-3.259302371621842220328346684254938736557960510254e-01,-1.623211018913574832378543533195625059306621551514e-01,1.000000000000000020816681711721685132943093776703e-02
2.600000000000000643929354282590793445706367492676e-01,-3.268709047395213507236633176944451406598091125488e-01,-1.607403277446615985635247625396004877984523773193e-01,1.000000000000000020816681711721685132943093776703e-02
2.700000000000000732747196252603316679596900939941e-01,-3.278036314119736616135014628525823354721069335938e-01,-1.591540380987676583934842255985131487250328063965e-01,1.000000000000000020816681711721685132943093776703e-02
2.800000000000000821565038222615839913487434387207e-01,-3.287283587904408221902485820464789867401123046875e-01,-1.575622536894567271570366528976592235267162322998e-01,1.000000000000000020816681711721685132943093776703e-02
2.900000000000000910382880192628363147377967834473e-01,-3.296450283731671149212161253672093152999877929688e-01,-1.559649959099655980310217273654416203498840332031e-01,1.000000000000000020816681711721685132943093776703e-02
3.000000000000000999200722162640886381268501281738e-01,-3.305535815568692026289454588550142943859100341797e-01,-1.543622868163123662554880866082385182380676269531e-01,1.000000000000000020816681711721685132943093776703e-02
3.100000000000001088018564132653409615159034729004e-01,-3.314539596479979532972492961562238633632659912109e-01,-1.527541491324453937217242582846665754914283752441e-01,1.000000000000000020816681711721685132943093776703e-02
3.200000000000001176836406102665932849049568176270e-01,-3.323461038741317152833687487145652994513511657715e-01,-1.511406062552116402741830825107172131538391113281e-01,1.000000000000000020816681711721685132943093776703e-02
3.300000000000001265654248072678456082940101623535e-01,-3.332299553954984894232893566368147730827331542969e-01,-1.495216822591411698351038239707122556865215301514e-01,1.000000000000000020816681711721685132943093776703e-02
3.400000000000001354472090042690979316830635070801e-01,-3.341054553166231122496299121849006041884422302246e-01,-1.478974019010439178156701700572739355266094207764e-01,1.000000000000000020816681711721685132943093776703e-02
3.500000000000001443289932012703502550721168518066e-01,-3.349725446980967857868449755187612026929855346680e-01,-1.462677906244153336334790083128609694540500640869e-01,1.000000000000000020816681711721685132943093776703e-02
3.600000000000001532107773982716025784611701965332e-01,-3.358311645684655122323647447046823799610137939453e-01,-1.446328745636474566449436451875953935086727142334e-01,1.000000000000000020816681711721685132943093776703e-02
3.700000000000001620925615952728549018502235412598e-01,-3.366812559362340473434471732616657391190528869629e-01,-1.429926805480417062454989718389697372913360595703e-01,1.000000000000000020816681711721685132943093776703e-02
3.800000000000001709743457922741072252392768859863e-01,-3.375227598019818198160635347448987886309623718262e-01,-1.413472361056202220019883952772943302989006042480e-01,1.000000000000000020816681711721685132943093776703e-02
3.900000000000001798561299892753595486283302307129e-01,-3.383556171705871529198361713497433811426162719727e-01,-1.396965694667323121258561968716094270348548889160e-01,1.000000000000000020816681711721685132943093776703e-02
4.000000000000001887379141862766118720173835754395e-01,-3.391797690635561246530471635196590796113014221191e-01,-1.380407095674526796180714427464408800005912780762e-01,1.000000000000000020816681711721685132943093776703e-02
4.100000000000001976196983832778641954064369201660e-01,-3.399951565314523471705854262836510315537452697754e-01,-1.363796860527681786834364174865186214447021484375e-01,1.000000000000000020816681711721685132943093776703e-02
4.200000000000002065014825802791165187954902648926e-01,-3.408017206664235021484898879862157627940177917480e-01,-1.347135292795499095230837838244042359292507171631e-01,1.000000000000000020816681711721685132943093776703e-02
4.300000000000002153832667772803688421845436096191e-01,-3.415994026148208573268050258775474503636360168457e-01,-1.330422703193075983918447491305414587259292602539e-01,1.000000000000000020816681711721685132943093776703e-02
4.400000000000002242650509742816211655735969543457e-01,-3.423881435899076564055576454848051071166992187500e-01,-1.313659409607230155181412101228488609194755554199e-01,1.000000000000000020816681711721685132943093776703e-02
4.500000000000002331468351712828734889626502990723e-01,-3.431678848846517193571514781069708988070487976074e-01,-1.296845737119597108399915441623306833207607269287e-01,1.000000000000000020816681711721685132943093776703e-02
4.600000000000002420286193682841258123517036437988e-01,-3.439385678845985339080471021588891744613647460938e-01,-1.279982018027458201547830185518250800669193267822e-01,1.000000000000000020816681711721685132943093776703e-02
4.700000000000002509104035652853781357407569885254e-01,-3.447001340808201197418725314491894096136093139648e-01,-1.263068591862274159254297956067603081464767456055e-01,1.000000000000000020816681711721685132943093776703e-02
4.800000000000002597921877622866304591298103332520e-01,-3.454525250829352245318659697659313678741455078125e-01,-1.246105805405894051407500455752597190439701080322e-01,1.000000000000000020816681711721685132943093776703e-02
4.900000000000002686739719592878827825188636779785e-01,-3.461956826321961333547960748546756803989410400391e-01,-1.229094012704414484726811451764660887420177459717e-01,1.000000000000000020816681711721685132943093776703e-02
5.000000000000002220446049250313080847263336181641e-01,-3.469295486146377061054124624206451699137687683105e-01,-1.212033575079661529283470144946477375924587249756e-01,1.000000000000000020816681711721685132943093776703e-02
