time,u0,u1,tau
0.000000000000000000000000000000000000000000000000e+00,-2.999999999999999333866185224906075745820999145508e-01,-9.999999999999997779553950749686919152736663818359e-02,1.000000000000000020816681711721685132943093776703e-02
1.000000000000000020816681711721685132943093776703e-02,-3.004398034666594941022310649714199826121330261230e-01,-9.892111053465299508324903854372678324580192565918e-02,1.000000000000000020816681711721685132943093776703e-02
2.000000000000000041633363423443370265886187553406e-02,-3.008754127116469168079504470370011404156684875488e-01,-9.784040409031692642205513266162597574293613433838e-02,1.000000000000000020816681711721685132943093776703e-02
2.999999999999999888977697537484345957636833190918e-02,-3.013068067516382897430560205975780263543128967285e-01,-9.675788778182817240214319554070243611931800842285e-02,1.000000000000000020816681711721685132943093776703e-02
4.000000000000000083266726846886740531772375106812e-02,-3.017339645844767659355056821368634700775146484375e-01,-9.567356893679798690577342767937807366251945495605e-02,1.000000000000000020816681711721685132943093776703e-02
5.000000000000000277555756156289135105907917022705e-02,-3.021568651923564607919558966386830434203147888184e-01,-9.458745509637050963291926564124878495931625366211e-02,1.000000000000000020816681711721685132943093776703e-02
6.000000000000000471844785465691529680043458938599e-02,-3.025754875450227254773949425725731998682022094727e-01,-9.349955401593890158551403146702796220779418945312e-02,1.000000000000000020816681711721685132943093776703e-02
7.000000000000000666133814775093924254179000854492e-02,-3.029898106029883519951795278757344931364059448242e-01,-9.240987366581902839879347766327555291354656219482e-02,1.000000000000000020816681711721685132943093776703e-02
8.000000000000000166533453693773481063544750213623e-02,-3.033998133207645997444501517747994512319564819336e-01,-9.131842223188031681946341677758027799427509307861e-02,1.000000000000000020816681711721685132943093776703e-02
8.999999999999999666933092612453037872910499572754e-02,-3.038054746501070435549252124474151059985160827637e-01,-9.022520811613335411927039331203559413552284240723e-02,1.000000000000000020816681711721685132943093776703e-02
9.999999999999999167332731531132594682276248931885e-02,-3.042067735432754105318053916562348604202270507812e-01,-8.913023993727378635476554791239323094487190246582e-02,1.000000000000000020816681711721685132943093776703e-02
1.099999999999999866773237044981215149164199829102e-01,-3.046036889563066840658223100035684183239936828613e-01,-8.803352653118214077299086284256190992891788482666e-02,1.000000000000000020816681711721685132943093776703e-02
1.199999999999999816813200936849170830100774765015e-01,-3.049961998523009754080703714862465858459472656250e-01,-8.693507695137912827387793868183507584035396575928e-02,1.000000000000000020816681711721685132943093776703e-02
1.299999999999999766853164828717126511037349700928e-01,-3.053842852047195521869582535146037116646766662598e-01,-8.583490046943605122908849125451524741947650909424e-02,1.000000000000000020816681711721685132943093776703e-02
1.399999999999999855671006798729649744927883148193e-01,-3.057679240006943022223140360438264906406402587891e-01,-8.473300657533988644587452654377557337284088134766e-02,1.000000000000000020816681711721685132943093776703e-02
1.499999999999999944488848768742172978818416595459e-01,-3.061470952443479109916779634659178555011749267578e-01,-8.362940497781276572020203730062348768115043640137e-02,1.000000000000000020816681711721685132943093776703e-02
1.600000000000000033306690738754696212708950042725e-01,-3.065217779601245307041779142309678718447685241699e-01,-8.252410560458535437877714002752327360212802886963e-02,1.000000000000000020816681711721685132943093776703e-02
1.700000000000000122124532708767219446599483489990e-01,-3.068919511961294421809043342364020645618438720703e-01,-8.141711860262386413200630386199918575584888458252e-02,1.000000000000000020816681711721685132943093776703e-02
1.800000000000000210942374678779742680490016937256e-01,-3.072575940274777650529358652420341968536376953125e-01,-8.030845433831024227089301348314620554447174072266e-02,1.000000000000000020816681711721685132943093776703e-02
1.900000000000000299760216648792265914380550384521e-01,-3.076186855596513836097471994435181841254234313965e-01,-7.919812339757539842999278789648087695240974426270e-02,1.000000000000000020816681711721685132943093776703e-02
2.000000000000000388578058618804789148271083831787e-01,-3.079752049318627560303696100163506343960762023926e-01,-7.808613658598487217155081907549174502491950988770e-02,1.000000000000000020816681711721685132943093776703e-02
2.100000000000000477395900588817312382161617279053e-01,-3.083271313204259400642115451773861423134803771973e-01,-7.697250492877681649073196012977859936654567718506e-02,1.000000000000000020816681711721685132943093776703e-02
2.200000000000000566213742558829835616052150726318e-01,-3.086744439421331143158511167712276801466941833496e-01,-7.585723967085192254167225200944812968373298645020e-02,1.000000000000000020816681711721685132943093776703e-02
2.300000000000000655031584528842358849942684173584e-01,-3.090171220576364286003467896080110222101211547852e-01,-7.474035227671495251744460119880386628210544586182e-02,1.000000000000000020816681711721685132943093776703e-02
2.400000000000000743849426498854882083833217620850e-01,-3.093551449748343507017978026851778849959373474121e-01,-7.362185443036770027269710681139258667826652526855e-02,1.000000000000000020816681711721685132943093776703e-02
2.500000000000000555111512312578270211815834045410e-01,-3.096884920522615103344321596523514017462730407715e-01,-7.250175803515296335532980265270452946424484252930e-02,1.000000000000000020816681711721685132943093776703e-02
2.600000000000000643929354282590793445706367492676e-01,-3.100171427024815407058611071988707408308982849121e-01,-7.138007521354935991375612047704635187983512878418e-02,1.000000000000000020816681711721685132943093776703e-02
2.700000000000000732747196252603316679596900939941e-01,-3.103410763954819739929291699809255078434944152832e-01,-7.025681830691672680178072596390848048031330108643e-02,1.000000000000000020816681711721685132943093776703e-02
2.800000000000000821565038222615839913487434387207e-01,-3.106602726620705245963449669943656772375106811523e-01,-6.913199987519184908091318675360525958240032196045e-02,1.000000000000000020816681711721685132943093776703e-02
2.900000000000000910382880192628363147377967834473e-01,-3.109747110972718164845218780101276934146881103516e-01,-6.800563269653428499772473969642305746674537658691e-02,1.000000000000000020816681711721685132943093776703e-02
3.000000000000000999200722162640886381268501281738e-01,-3.112843713637239995151162474940065294504165649414e-01,-6.687772976692207826943104009842500090599060058594e-02,1.000000000000000020816681711721685132943093776703e-02
3.100000000000001088018564132653409615159034729004e-01,-3.115892331950739224666335758229251950979232788086e-01,-6.574830429969719114424719919043127447366714477539e-02,1.000000000000000020816681711721685132943093776703e-02
3.200000000000001176836406102665932849049568176270e-01,-3.118892763993708627801026977977016940712928771973e-01,-6.461736972506042231412237697441014461219310760498e-02,1.000000000000000020816681711721685132943093776703e-02
3.300000000000001265654248072678456082940101623535e-01,-3.121844808624570366539785482018487527966499328613e-01,-6.348493968951568477976366011716891080141067504883e-02,1.000000000000000020816681711721685132943093776703e-02
3.400000000000001354472090042690979316830635070801e-01,-3.124748265513549450034247456642333418130874633789e-01,-6.235102805526347713449553111786372028291225433350e-02,1.000000000000000020816681711721685132943093776703e-02
3.500000000000001443289932012703502550721168518066e-01,-3.127602935176499454605902883486123755574226379395e-01,-6.121564889954335397792561934693367220461368560791e-02,1.000000000000000020816681711721685132943093776703e-02
3.600000000000001532107773982716025784611701965332e-01,-3.130408619008677728601242051809094846248626708984e-01,-6.007881651392538158162892614200245589017868041992e-02,1.000000000000000020816681711721685132943093776703e-02
3.700000000000001620925615952728549018502235412598e-01,-3.133165119318458424757523061998654156923294067383e-01,-5.894054540355033594556388720775430556386709213257e-02,1.000000000000000020816681711721685132943093776703e-02
3.800000000000001709743457922741072252392768859863e-01,-3.135872239360975588517987944214837625622749328613e-01,-5.780085028631864324522027231978427153080701828003e-02,1.000000000000000020816681711721685132943093776703e-02
3.900000000000001798561299892753595486283302307129e-01,-3.138529783371687420512330390920396894216537475586e-01,-5.665974609202793083051474809508363250643014907837e-02,1.000000000000000020816681711721685132943093776703e-02
4.000000000000001887379141862766118720173835754395e-01,-3.141137556599852276306705789465922862291336059570e-01,-5.551724796145915408196458429301856085658073425293e-02,1.000000000000000020816681711721685132943093776703e-02
4.100000000000001976196983832778641954064369201660e-01,-3.143695365341910852308160428947303444147109985352e-01,-5.437337124541120197962484894560475368052721023560e-02,1.000000000000000020816681711721685132943093776703e-02
4.200000000000002065014825802791165187954902648926e-01,-3.146203016974760680035672066878760233521461486816e-01,-5.322813150368403689594032357490505091845989227295e-02,1.000000000000000020816681711721685132943093776703e-02
4.300000000000002153832667772803688421845436096191e-01,-3.148660319988917377642678729898761957883834838867e-01,-5.208154450401021595684625253852573223412036895752e-02,1.000000000000000020816681711721685132943093776703e-02
4.400000000000002242650509742816211655735969543457e-01,-3.151067084021552666683874122099950909614562988281e-01,-5.093362622093495356567771636946417856961488723755e-02,1.000000000000000020816681711721685132943093776703e-02
4.500000000000002331468351712828734889626502990723e-01,-3.153423119889401937676609577465569600462913513184e-01,-4.978439283464460018979735878019710071384906768799e-02,1.000000000000000020816681711721685132943093776703e-02
4.600000000000002420286193682841258123517036437988e-01,-3.155728239621527486669094741955632343888282775879e-01,-4.863386072974362761556221812497824430465698242188e-02,1.000000000000000020816681711721685132943093776703e-02
4.700000000000002509104035652853781357407569885254e-01,-3.157982256491935757480860047508031129837036132812e-01,-4.748204649398021781614431802154285833239555358887e-02,1.000000000000000020816681711721685132943093776703e-02
4.800000000000002597921877622866304591298103332520e-01,-3.160184985052030826047086975449929013848304748535e-01,-4.632896691692043461552330541053379420191049575806e-02,1.000000000000000020816681711721685132943093776703e-02
4.900000000000002686739719592878827825188636779785e-01,-3.162336241162903571755293796741170808672904968262e-01,-4.517463898857110304874140638276003301143646240234e-02,1.000000000000000020816681711721685132943093776703e-02
5.000000000000002220446049250313080847263336181641e-01,-3.164435842027440992652032036858145147562026977539e-01,-4.401907989795150744072316228994168341159820556641e-02,1.000000000000000020816681711721685132943093776703e-02
