time,u0,u1,tau
0.000000000000000000000000000000000000000000000000e+00,-9.999999999999997779553950749686919152736663818359e-02,1.000000000000000000000000000000000000000000000000e+00,1.000000000000000020816681711721685132943093776703e-02
1.000000000000000020816681711721685132943093776703e-02,-5.901248216331762830311191692089778371155261993408e-02,9.997616244590018519389218454307410866022109985352e-01,1.000000000000000020816681711721685132943093776703e-02
2.000000000000000041633363423443370265886187553406e-02,-1.841327049775017682398114970965252723544836044312e-02,9.979765560881203034782060967700090259313583374023e-01,1.000000000000000020816681711721685132943093776703e-02
2.999999999999999888977697537484345957636833190918e-02,2.175171238961639413878046411809918936342000961304e-02,9.946889753346528362243361698347143828868865966797e-01,1.000000000000000020816681711721685132943093776703e-02
4.000000000000000083266726846886740531772375106812e-02,6.143897943482647810986563285950978752225637435913e-02,9.899422484595884474956051235494669526815414428711e-01,1.000000000000000020816681711721685132943093776703e-02
5.000000000000000277555756156289135105907917022705e-02,1.006072581556771428079599672855692915618419647217e-01,9.837788309471726666544100226019509136676788330078e-01,1.000000000000000020816681711721685132943093776703e-02
6.000000000000000471844785465691529680043458938599e-02,1.392172706770947732124454887525644153356552124023e-01,9.762402094658314544162180936837103217840194702148e-01,1.000000000000000020816681711721685132943093776703e-02
7.000000000000000666133814775093924254179000854492e-02,1.772315200296262771573196914687287062406539916992e-01,9.673668801414803120053420570911839604377746582031e-01,1.000000000000000020816681711721685132943093776703e-02
8.000000000000000166533453693773481063544750213623e-02,2.146140875126175961984387186021194793283939361572e-01,9.571983603566865950185160727414768189191818237305e-01,1.000000000000000020816681711721685132943093776703e-02
8.999999999999999666933092612453037872910499572754e-02,2.513304453620905376531879937829216942191123962402e-01,9.457732308514417152167652602656744420528411865234e-01,1.000000000000000020816681711721685132943093776703e-02
9.999999999999999167332731531132594682276248931885e-02,2.873472883702030133967753044998971745371818542480e-01,9.331292045585098948734525947656948119401931762695e-01,1.000000000000000020816681711721685132943093776703e-02
1.099999999999999866773237044981215149164199829102e-01,3.226323874794274626509604786406271159648895263672e-01,9.193032183455247530190490579116158187389373779297e-01,1.000000000000000020816681711721685132943093776703e-02
1.199999999999999816813200936849170830100774765015e-01,3.571544677280687474230091993376845493912696838379e-01,9.043315436469636647842662569019012153148651123047e-01,1.000000000000000020816681711721685132943093776703e-02
1.299999999999999766853164828717126511037349700928e-01,3.908831122605304631001388315780786797404289245605e-01,8.882499118446329777754044698667712509632110595703e-01,1.000000000000000020816681711721685132943093776703e-02
1.399999999999999855671006798729649744927883148193e-01,4.237886934413216954986580731201684102416038513184e-01,8.710936501911681340004633966600522398948669433594e-01,1.000000000000000020816681711721685132943093776703e-02
1.499999999999999944488848768742172978818416595459e-01,4.558423314322245789576015795319108292460441589355e-01,8.528978240659078613461474560608621686697006225586e-01,1.000000000000000020816681711721685132943093776703e-02
1.600000000000000033306690738754696212708950042725e-01,4.870158799148169848081124655436724424362182617188e-01,8.336973814072337063407758250832557678222656250000e-01,1.000000000000000020816681711721685132943093776703e-02
1.700000000000000122124532708767219446599483489990e-01,5.172819379752531254723635356640443205833435058594e-01,8.135272952825388648179227857326623052358627319336e-01,1.000000000000000020816681711721685132943093776703e-02
1.800000000000000210942374678779742680490016937256e-01,5.466138865268207469583217061881441622972488403320e-01,7.924227007395755473240228639042470604181289672852e-01,1.000000000000000020816681711721685132943093776703e-02
1.900000000000000299760216648792265914380550384521e-01,5.749859470426005314536155310634057968854904174805e-01,7.704190223339463239327074006723705679178237915039e-01,1.000000000000000020816681711721685132943093776703e-02
2.000000000000000388578058618804789148271083831787e-01,6.023732598217033107346196629805490374565124511719e-01,7.475520890486251346374046988785266876220703125000e-01,1.000000000000000020816681711721685132943093776703e-02
2.100000000000000477395900588817312382161617279053e-01,6.287519785352584378301799006294459104537963867188e-01,7.238582337121253207357085557305254042148590087891e-01,1.000000000000000020816681711721685132943093776703e-02
2.200000000000000566213742558829835616052150726318e-01,6.540993774097437762904405644803773611783981323242e-01,6.993743744788289973257633391767740249633789062500e-01,1.000000000000000020816681711721685132943093776703e-02
2.300000000000000655031584528842358849942684173584e-01,6.783939671212111388598486882983706891536712646484e-01,6.741380764511001322247807365783955901861190795898e-01,1.000000000000000020816681711721685132943093776703e-02
2.400000000000000743849426498854882083833217620850e-01,7.016156153075849832845278797321952879428863525391e-01,6.481875920874270446958576030738186091184616088867e-01,1.000000000000000020816681711721685132943093776703e-02
2.500000000000000555111512312578270211815834045410e-01,7.237456675665793204288434026238974183797836303711e-01,6.215618796396173983964672515867277979850769042969e-01,1.000000000000000020816681711721685132943093776703e-02
2.600000000000000643929354282590793445706367492676e-01,7.447670648978631513514869766368065029382705688477e-01,5.943005994774718248052636226930189877748489379883e-01,1.000000000000000020816681711721685132943093776703e-02
2.700000000000000732747196252603316679596900939941e-01,7.646644537680126196832475216069724410772323608398e-01,5.664440887714921046836025197990238666534423828125e-01,1.000000000000000020816681711721685132943093776703e-02
2.800000000000000821565038222615839913487434387207e-01,7.834242853174681053829431220947299152612686157227e-01,5.380333155918832765962633857270702719688415527344e-01,1.000000000000000020816681711721685132943093776703e-02
2.900000000000000910382880192628363147377967834473e-01,8.010349006761637857820801400521304458379745483398e-01,5.091098140242588110382371269224677234888076782227e-01,1.000000000000000020816681711721685132943093776703e-02
3.000000000000000999200722162640886381268501281738e-01,8.174865998894597085566715577442664653062820434570e-01,4.797156023793389123532904250168940052390098571777e-01,1.000000000000000020816681711721685132943093776703e-02
3.100000000000001088018564132653409615159034729004e-01,8.327716925551068571920154681720305234193801879883e-01,4.498930869685162647897413989994674921035766601562e-01,1.000000000000000020816681711721685132943093776703e-02
3.200000000000001176836406102665932849049568176270e-01,8.468845289092052919244224540307186543941497802734e-01,4.196849542162521817800779899698682129383087158203e-01,1.000000000000000020816681711721685132943093776703e-02
3.300000000000001265654248072678456082940101623535e-01,8.598215107474488361205544606491457670927047729492e-01,3.891340540752935006629797953792149201035499572754e-01,1.000000000000000020816681711721685132943093776703e-02
3.400000000000001354472090042690979316830635070801e-01,8.715810822010483516208978471695445477962493896484e-01,3.582832777982023486629259423352777957916259765625e-01,1.000000000000000020816681711721685132943093776703e-02
3.500000000000001443289932012703502550721168518066e-01,8.821637009804565998649650282459333539009094238281e-01,3.271754331003629001628496553166769444942474365234e-01,1.000000000000000020816681711721685132943093776703e-02
3.600000000000001532107773982716025784611701965332e-01,8.915717912337401962474814354209229350090026855469e-01,2.958531196320066114502367327077081426978111267090e-01,1.000000000000000020816681711721685132943093776703e-02
3.700000000000001620925615952728549018502235412598e-01,8.998096796239419825624850091116968542337417602539e-01,2.643586074706124056099554309184895828366279602051e-01,1.000000000000000020816681711721685132943093776703e-02
3.800000000000001709743457922741072252392768859863e-01,9.068835165997691794004254006722476333379745483398e-01,2.327337210643113663000036694938899017870426177979e-01,1.000000000000000020816681711721685132943093776703e-02
3.900000000000001798561299892753595486283302307129e-01,9.128011851102317830708443580078892409801483154297e-01,2.010197307179268089161183752366923727095127105713e-01,1.000000000000000020816681711721685132943093776703e-02
4.000000000000001887379141862766118720173835754395e-01,9.175721991950689382377959191217087209224700927734e-01,1.692572533334302797847215060755843296647071838379e-01,1.000000000000000020816681711721685132943093776703e-02
4.100000000000001976196983832778641954064369201660e-01,9.212075949718894207762787118554115295410156250000e-01,1.374861637134148217853635287610813975334167480469e-01,1.000000000000000020816681711721685132943093776703e-02
4.200000000000002065014825802791165187954902648926e-01,9.237198165444292508041712608246598392724990844727e-01,1.057455173263832648444804362952709197998046875000e-01,1.000000000000000020816681711721685132943093776703e-02
4.300000000000002153832667772803688421845436096191e-01,9.251225992834472000581058637180831283330917358398e-01,7.407348503135839645761251404110225848853588104248e-02,1.000000000000000020816681711721685132943093776703e-02
4.400000000000002242650509742816211655735969543457e-01,9.254308527936252470880162945832125842571258544922e-01,4.250729987958665884173470317364262882620096206665e-02,1.000000000000000020816681711721685132943093776703e-02
4.500000000000002331468351712828734889626502990723e-01,9.246605456885202967143300156749319285154342651367e-01,1.108321576353721998886570077047508675605058670044e-02,1.000000000000000020816681711721685132943093776703e-02
4.600000000000002420286193682841258123517036437988e-01,9.228285940634814998873025615466758608818054199219e-01,-2.016352262394027761160941736306995153427124023438e-02,1.000000000000000020816681711721685132943093776703e-02
4.700000000000002509104035652853781357407569885254e-01,9.199527552955141240786929301975760608911514282227e-01,-5.119869931898721193697099351993529126048088073730e-02,1.000000000000000020816681711721685132943093776703e-02
4.800000000000002597921877622866304591298103332520e-01,9.160515285205186319927861404721625149250030517578e-01,-8.198913711586362784711212725596851669251918792725e-02,1.000000000000000020816681711721685132943093776703e-02
4.900000000000002686739719592878827825188636779785e-01,9.111440628521995099831087827624287456274032592773e-01,-1.125026992694231758873613102878152858465909957886e-01,1.000000000000000020816681711721685132943093776703e-02
5.000000000000002220446049250313080847263336181641e-01,9.052500741219243751700673783489037305116653442383e-01,-1.427082841572968607835036891628988087177276611328e-01,1.000000000000000020816681711721685132943093776703e-02
