time,u0,u1,tau
0.000000000000000000000000000000000000000000000000e+00,-5.000000000000000277555756156289135105907917022705e-02,1.999999999999999000799277837359113618731498718262e-02,1.000000000000000020816681711721685132943093776703e-02
1.000000000000000020816681711721685132943093776703e-02,-4.998964286609594576127335585624678060412406921387e-02,1.998583695004431393105193137671449221670627593994e-02,1.000000000000000020816681711721685132943093776703e-02
2.000000000000000041633363423443370265886187553406e-02,-4.997921940317198025161005148220283444970846176147e-02,1.997174853550938433688344275651616044342517852783e-02,1.000000000000000020816681711721685132943093776703e-02
2.999999999999999888977697537484345957636833190918e-02,-4.996872967955266059414398682747560087591409683228e-02,1.995773466454866043595650637598737375810742378235e-02,1.000000000000000020816681711721685132943093776703e-02
4.000000000000000083266726846886740531772375106812e-02,-4.995817376324623859673579318041447550058364868164e-02,1.994379524568661021799442778501543216407299041748e-02,1.000000000000000020816681711721685132943093776703e-02
5.000000000000000277555756156289135105907917022705e-02,-4.994755172194453862744012440089136362075805664062e-02,1.992993018781885616874660627217963337898254394531e-02,1.000000000000000020816681711721685132943093776703e-02
6.000000000000000471844785465691529680043458938599e-02,-4.993686362302284659220319440464663784950971603394e-02,1.991613940021230710897270910209044814109802246094e-02,1.000000000000000020816681711721685132943093776703e-02
7.000000000000000666133814775093924254179000854492e-02,-4.992610953353980585145421855486347340047359466553e-02,1.990242279250528309453294184550031786784529685974e-02,1.000000000000000020816681711721685132943093776703e-02
8.000000000000000166533453693773481063544750213623e-02,-4.991528952023729232001514333205705042928457260132e-02,1.988878027470762643869051089495769701898097991943e-02,1.000000000000000020816681711721685132943093776703e-02
8.999999999999999666933092612453037872910499572754e-02,-4.990440364954035201705551116901915520429611206055e-02,1.987521175720080926496713402684690663591027259827e-02,1.000000000000000020816681711721685132943093776703e-02
9.999999999999999167332731531132594682276248931885e-02,-4.989345198755710392157780574962089303880929946899e-02,1.986171715073804452944550291704217670485377311707e-02,1.000000000000000020816681711721685132943093776703e-02
1.099999999999999866773237044981215149164199829102e-01,-4.988243460007865670569060512207215651869773864746e-02,1.984829636644435887915527416680561145767569541931e-02,1.000000000000000020816681711721685132943093776703e-02
1.199999999999999816813200936849170830100774765015e-01,-4.987135155257904628456344653386622667312622070312e-02,1.983494931581669673548162791121285408735275268555e-02,1.000000000000000020816681711721685132943093776703e-02
1.299999999999999766853164828717126511037349700928e-01,-4.986020291021516642748778735949599649757146835327e-02,1.982167591072397580531649907698010792955756187439e-02,1.000000000000000020816681711721685132943093776703e-02
1.399999999999999855671006798729649744927883148193e-01,-4.984898873782673406340748556431208271533250808716e-02,1.980847606340717728667932817643304588273167610168e-02,1.000000000000000020816681711721685132943093776703e-02
1.499999999999999944488848768742172978818416595459e-01,-4.983770909993621989197976063223904930055141448975e-02,1.979534968647938750208048475087707629427313804626e-02,1.000000000000000020816681711721685132943093776703e-02
1.600000000000000033306690738754696212708950042725e-01,-4.982636406074881368910567402963351923972368240356e-02,1.978229669292586034856640253565274178981781005859e-02,1.000000000000000020816681711721685132943093776703e-02
1.700000000000000122124532708767219446599483489990e-01,-4.981495368415240349024841748359904158860445022583e-02,1.976931699610405893108300290350598515942692756653e-02,1.000000000000000020816681711721685132943093776703e-02
1.800000000000000210942374678779742680490016937256e-01,-4.980347803371753395706988953861582558602094650269e-02,1.975641050974369372639216635434422641992568969727e-02,1.000000000000000020816681711721685132943093776703e-02
1.900000000000000299760216648792265914380550384521e-01,-4.979193717269740637743069555654074065387248992920e-02,1.974357714794675033864734814414987340569496154785e-02,1.000000000000000020816681711721685132943093776703e-02
2.000000000000000388578058618804789148271083831787e-01,-4.978033116402785784870843599492218345403671264648e-02,1.973081682518751725496919391389383235946297645569e-02,1.000000000000000020816681711721685132943093776703e-02
2.100000000000000477395900588817312382161617279053e-01,-4.976866007032735433890380249977170024067163467407e-02,1.971812945631258931489249164314969675615429878235e-02,1.000000000000000020816681711721685132943093776703e-02
2.200000000000000566213742558829835616052150726318e-01,-4.975692395389701150332228962724911980330944061279e-02,1.970551495654088852704788337177888024598360061646e-02,1.000000000000000020816681711721685132943093776703e-02
2.300000000000000655031584528842358849942684173584e-01,-4.974512287672058774568029093643417581915855407715e-02,1.969297324146365019137405738547386135905981063843e-02,1.000000000000000020816681711721685132943093776703e-02
2.400000000000000743849426498854882083833217620850e-01,-4.973325690046451197368071461824001744389533996582e-02,1.968050422704441596022384430852980585768818855286e-02,1.000000000000000020816681711721685132943093776703e-02
2.500000000000000555111512312578270211815834045410e-01,-4.972132608647792523237640693878347519785165786743e-02,1.966810782961903036891726515023037791252136230469e-02,1.000000000000000020816681711721685132943093776703e-02
2.600000000000000643929354282590793445706367492676e-01,-4.970933049579268070417015223938506096601486206055e-02,1.965578396589560267182505981509166304022073745728e-02,1.000000000000000020816681711721685132943093776703e-02
2.700000000000000732747196252603316679596900939941e-01,-4.969727018912340615885980810162436682730913162231e-02,1.964353255295448255624002342756284633651375770569e-02,1.000000000000000020816681711721685132943093776703e-02
2.800000000000000821565038222615839913487434387207e-01,-4.968514522686755946478953660516708623617887496948e-02,1.963135350824822544790748679588432423770427703857e-02,1.000000000000000020816681711721685132943093776703e-02
2.900000000000000910382880192628363147377967834473e-01,-4.967295566910545634442541995667852461338043212891e-02,1.961924674960153353042713320064649451524019241333e-02,1.000000000000000020816681711721685132943093776703e-02
3.000000000000000999200722162640886381268501281738e-01,-4.966070157560036057997621128379250876605510711670e-02,1.960721219521122105078347885864786803722381591797e-02,1.000000000000000020816681711721685132943093776703e-02
3.100000000000001088018564132653409615159034729004e-01,-4.964838300579853952454456589293840806931257247925e-02,1.959524976364613799151292994338291464373469352722e-02,1.000000000000000020816681711721685132943093776703e-02
3.200000000000001176836406102665932849049568176270e-01,-4.963600001882932655217217643439653329551219940186e-02,1.958335937384711455955255132721504196524620056152e-02,1.000000000000000020816681711721685132943093776703e-02
3.300000000000001265654248072678456082940101623535e-01,-4.962355267350523901903613932518055662512779235840e-02,1.957154094512687791951321969463606365025043487549e-02,1.000000000000000020816681711721685132943093776703e-02
3.400000000000001354472090042690979316830635070801e-01,-4.961104102832202683570628209963615518063306808472e-02,1.955979439716997239639972860913985641673207283020e-02,1.000000000000000020816681711721685132943093776703e-02
3.500000000000001443289932012703502550721168518066e-01,-4.959846514145881124502324155400856398046016693115e-02,1.954811965003267273943698967286763945594429969788e-02,1.000000000000000020816681711721685132943093776703e-02
3.600000000000001532107773982716025784611701965332e-01,-4.958582507077814727214359891149797476828098297119e-02,1.953651662414288350810842587179649854078888893127e-02,1.000000000000000020816681711721685132943093776703e-02
3.700000000000001620925615952728549018502235412598e-01,-4.957312087382616944131186187405546661466360092163e-02,1.952498524030004192764131687454209895804524421692e-02,1.000000000000000020816681711721685132943093776703e-02
3.800000000000001709743457922741072252392768859863e-01,-4.956035260783268198148121541635191533714532852173e-02,1.951352541967499645836348065586207667365670204163e-02,1.000000000000000020816681711721685132943093776703e-02
3.900000000000001798561299892753595486283302307129e-01,-4.954752032971130454308550383757392410188913345337e-02,1.950213708380989924284776293461618479341268539429e-02,1.000000000000000020816681711721685132943093776703e-02
4.000000000000001887379141862766118720173835754395e-01,-4.953462409605959015923559718430624343454837799072e-02,1.949082015461807426692786293642711825668811798096e-02,1.000000000000000020816681711721685132943093776703e-02
4.100000000000001976196983832778641954064369201660e-01,-4.952166396315917096249137330232770182192325592041e-02,1.947957455438389245960806306356971617788076400757e-02,1.000000000000000020816681711721685132943093776703e-02
4.200000000000002065014825802791165187954902648926e-01,-4.950863998697589696273979598117875866591930389404e-02,1.946840020576262250684429488956084242090582847595e-02,1.000000000000000020816681711721685132943093776703e-02
4.300000000000002153832667772803688421845436096191e-01,-4.949555222315999564175470482041419018059968948364e-02,1.945729703178029207366606101459183264523744583130e-02,1.000000000000000020816681711721685132943093776703e-02
4.400000000000002242650509742816211655735969543457e-01,-4.948240072704621766996879728139901999384164810181e-02,1.944626495583353167906359715288999723270535469055e-02,1.000000000000000020816681711721685132943093776703e-02
4.500000000000002331468351712828734889626502990723e-01,-4.946918555365401037882122636801796033978462219238e-02,1.943530390168941857087503422008012421429157257080e-02,1.000000000000000020816681711721685132943093776703e-02
4.600000000000002420286193682841258123517036437988e-01,-4.945590675768769123310519830738485325127840042114e-02,1.942441379348529978399184869886084925383329391479e-02,1.000000000000000020816681711721685132943093776703e-02
4.700000000000002509104035652853781357407569885254e-01,-4.944256439353662130331557023055211175233125686646e-02,1.941359455572863254579907277275196975097060203552e-02,1.000000000000000020816681711721685132943093776703e-02
4.800000000000002597921877622866304591298103332520e-01,-4.942915851527539261578425566767691634595394134521e-02,1.940284611329679345659293687731405952945351600647e-02,1.000000000000000020816681711721685132943093776703e-02
4.900000000000002686739719592878827825188636779785e-01,-4.941568917666402244170953395041578914970159530640e-02,1.939216839143689113944546420498227234929800033569e-02,1.000000000000000020816681711721685132943093776703e-02
5.000000000000002220446049250313080847263336181641e-01,-4.940215643114814758618535961431916803121566772461e-02,1.938156131576557542062211325628595659509301185608e-02,1.000000000000000020816681711721685132943093776703e-02
5.100000000000002309263891220325604081153869628906e-01,-4.938856033185923255501847961568273603916168212891e-02,1.937102481226882916276466062299732584506273269653e-02,1.000000000000000020816681711721685132943093776703e-02
5.200000000000002398081733190338127315044403076172e-01,-4.937490093161477772154555054839875083416700363159e-02,1.936055880730177050641493963212269591167569160461e-02,1.000000000000000020816681711721685132943093776703e-02
5.300000000000002486899575160350650548934936523438e-01,-4.936117828291853443234415976803575176745653152466e-02,1.935016322758843082540991531459440011531114578247e-02,1.000000000000000020816681711721685132943093776703e-02
5.400000000000002575717417130363173782825469970703e-01,-4.934739243796074092962555823760339990258216857910e-02,1.933983800022153268227675937396270455792546272278e-02,1.000000000000000020816681711721685132943093776703e-02
5.500000000000002664535259100375697016716003417969e-01,-4.933354344861833745694568165163218509405851364136e-02,1.932958305266226431418097320147353457286953926086e-02,1.000000000000000020816681711721685132943093776703e-02
5.600000000000002753353101070388220250606536865234e-01,-4.931963136645522993717349891085177659988403320312e-02,1.931939831274004024108670307668944587931036949158e-02,1.000000000000000020816681711721685132943093776703e-02
5.700000000000002842170943040400743484497070312500e-01,-4.930565624272249813930812933904235251247882843018e-02,1.930928370865226534336400732172478456050157546997e-02,1.000000000000000020816681711721685132943093776703e-02
5.800000000000002930988785010413266718387603759766e-01,-4.929161812835868017312890287939808331429958343506e-02,1.929923916896407812271441173379571409896016120911e-02,1.000000000000000020816681711721685132943093776703e-02
5.900000000000003019806626980425789952278137207031e-01,-4.927751707399000147269418903306359425187110900879e-02,1.928926462260810090199036892499862005934119224548e-02,1.000000000000000020816681711721685132943093776703e-02
6.000000000000003108624468950438313186168670654297e-01,-4.926335312993066622988536096272582653909921646118e-02,1.927935999888417961667386180124594829976558685303e-02,1.000000000000000020816681711721685132943093776703e-02
6.100000000000003197442310920450836420059204101562e-01,-4.924912634618310025569343224560725502669811248779e-02,1.926952522745910972856719922674528788775205612183e-02,1.000000000000000020816681711721685132943093776703e-02
6.200000000000003286260152890463359653949737548828e-01,-4.923483677243824935265692488428612705320119857788e-02,1.925976023836636213948381168847845401614904403687e-02,1.000000000000000020816681711721685132943093776703e-02
6.300000000000003375077994860475882887840270996094e-01,-4.922048445807584299283021778137481305748224258423e-02,1.925006496200580563549209500706638209521770477295e-02,1.000000000000000020816681711721685132943093776703e-02
6.400000000000003463895836830488406121730804443359e-01,-4.920606945216469962911531865756842307746410369873e-02,1.924043932914341198392449427956307772547006607056e-02,1.000000000000000020816681711721685132943093776703e-02
6.500000000000003552713678800500929355621337890625e-01,-4.919159180346301118991192424800829030573368072510e-02,1.923088327091096796928049172947794431820511817932e-02,1.000000000000000020816681711721685132943093776703e-02
6.600000000000003641531520770513452589511871337891e-01,-4.917705156041864839044919222033058758825063705444e-02,1.922139671880576661244788283511297777295112609863e-02,1.000000000000000020816681711721685132943093776703e-02
6.700000000000003730349362740525975823402404785156e-01,-4.916244877116947298301141699994332157075405120850e-02,1.921197960469030532881795636512833880260586738586e-02,1.000000000000000020816681711721685132943093776703e-02
6.800000000000003819167204710538499057292938232422e-01,-4.914778348354365000716370559530332684516906738281e-02,1.920263186079196673916591464603698113933205604553e-02,1.000000000000000020816681711721685132943093776703e-02
6.900000000000003907985046680551022291183471679688e-01,-4.913305574505995310108374951596488244831562042236e-02,1.919335341970270294997824578331346856430172920227e-02,1.000000000000000020816681711721685132943093776703e-02
7.000000000000003996802888650563545525074005126953e-01,-4.911826560292812532404482794845534954220056533813e-02,1.918414421437870248654533611443184781819581985474e-02,1.000000000000000020816681711721685132943093776703e-02
7.100000000000004085620730620576068758964538574219e-01,-4.910341310404917752885367576709541026502847671509e-02,1.917500417814005375660713070828933268785476684570e-02,1.000000000000000020816681711721685132943093776703e-02
7.200000000000004174438572590588591992855072021484e-01,-4.908849829501574918433348670987470541149377822876e-02,1.916593324467041892233964972547255456447601318359e-02,1.000000000000000020816681711721685132943093776703e-02
7.300000000000004263256414560601115226745605468750e-01,-4.907352122211244144223130092541396152228116989136e-02,1.915693134801666960842503328876773593947291374207e-02,1.000000000000000020816681711721685132943093776703e-02
7.400000000000004352074256530613638460636138916016e-01,-4.905848193131618489859491205606900621205568313599e-02,1.914799842258854342680329807535599684342741966248e-02,1.000000000000000020816681711721685132943093776703e-02
7.500000000000004440892098500626161694526672363281e-01,-4.904338046829657266068025478489289525896310806274e-02,1.913913440315828662363628609455190598964691162109e-02,1.000000000000000020816681711721685132943093776703e-02
7.600000000000004529709940470638684928417205810547e-01,-4.902821687841625586390392754765343852341175079346e-02,1.913033922486027937903685369747108779847621917725e-02,1.000000000000000020816681711721685132943093776703e-02
7.700000000000004618527782440651208162307739257812e-01,-4.901299120673128367764448398702370468527078628540e-02,1.912161282319066457624501254031201824545860290527e-02,1.000000000000000020816681711721685132943093776703e-02
7.800000000000004707345624410663731396198272705078e-01,-4.899770349799151269998276347905630245804786682129e-02,1.911295513400698004025102250125200953334569931030e-02,1.000000000000000020816681711721685132943093776703e-02
7.900000000000004796163466380676254630088806152344e-01,-4.898235379664095390239708649460226297378540039062e-02,1.910436609352776302084286896842968417331576347351e-02,1.000000000000000020816681711721685132943093776703e-02
8.000000000000004884981308350688777863979339599609e-01,-4.896694214681818202450358512578532099723815917969e-02,1.909584563833215814510069208154163789004087448120e-02,1.000000000000000020816681711721685132943093776703e-02
8.100000000000004973799150320701301097869873046875e-01,-4.895146859235673802990262970524781849235296249390e-02,1.908739370535952536989121597343910252675414085388e-02,1.000000000000000020816681711721685132943093776703e-02
8.200000000000005062616992290713824331760406494141e-01,-4.893593317678551074534354370371147524565458297729e-02,1.907901023190903405657437019726785365492105484009e-02,1.000000000000000020816681711721685132943093776703e-02
8.300000000000005151434834260726347565650939941406e-01,-4.892033594332916013325274207090842537581920623779e-02,1.907069515563925010681600724637974053621292114258e-02,1.000000000000000020816681711721685132943093776703e-02
8.400000000000005240252676230738870799541473388672e-01,-4.890467693490851974758015785482712090015411376953e-02,1.906244841456771962895366812063002726063132286072e-02,1.000000000000000020816681711721685132943093776703e-02
8.500000000000005329070518200751394033432006835938e-01,-4.888895619414102694522128444987174589186906814575e-02,1.905426994707055260436234789267473388463258743286e-02,1.000000000000000020816681711721685132943093776703e-02
8.600000000000005417888360170763917267322540283203e-01,-4.887317376334113921965141003056487534195184707642e-02,1.904615969188198573713854955258284462615847587585e-02,1.000000000000000020816681711721685132943093776703e-02
8.700000000000005506706202140776440501213073730469e-01,-4.885732968452077135124156370693526696413755416870e-02,1.903811758809395224267824175967689370736479759216e-02,1.000000000000000020816681711721685132943093776703e-02
8.800000000000005595524044110788963735103607177734e-01,-4.884142399938972561868055777267727535218000411987e-02,1.903014357515563428902005682630260707810521125793e-02,1.000000000000000020816681711721685132943093776703e-02
8.900000000000005684341886080801486968994140625000e-01,-4.882545674935614976597264558222377672791481018066e-02,1.902223759287302237708239260882692178711295127869e-02,1.000000000000000020816681711721685132943093776703e-02
