time,u0,u1,tau
0.000000000000000000000000000000000000000000000000e+00,1.999999999999999000799277837359113618731498718262e-02,-2.999999999999999888977697537484345957636833190918e-02,1.000000000000000020816681711721685132943093776703e-02
1.000000000000000020816681711721685132943093776703e-02,1.998638408442688849109281079563515959307551383972e-02,-2.999309605934971992291515618944686139002442359924e-02,1.000000000000000020816681711721685132943093776703e-02
2.000000000000000041633363423443370265886187553406e-02,1.997265998107427414920422847899317275732755661011e-02,-2.998630854173478174629074999302247306331992149353e-02,1.000000000000000020816681711721685132943093776703e-02
2.999999999999999888977697537484345957636833190918e-02,1.995882768478527899413954571627982659265398979187e-02,-2.997963743704405714662897253219853155314922332764e-02,1.000000000000000020816681711721685132943093776703e-02
4.000000000000000083266726846886740531772375106812e-02,1.994488718981179270484105359173554461449384689331e-02,-2.997308273578586090835074173810426145792007446289e-02,1.000000000000000020816681711721685132943093776703e-02
5.000000000000000277555756156289135105907917022705e-02,1.993083848981343220163608975781244225800037384033e-02,-2.996664442908865758075087626366439508274197578430e-02,1.000000000000000020816681711721685132943093776703e-02
6.000000000000000471844785465691529680043458938599e-02,1.991668157785653897606792384067375678569078445435e-02,-2.996032250870175536738848620643693720921874046326e-02,1.000000000000000020816681711721685132943093776703e-02
7.000000000000000666133814775093924254179000854492e-02,1.990241644641316601238578698485071072354912757874e-02,-2.995411696699600001547736383145092986524105072021e-02,1.000000000000000020816681711721685132943093776703e-02
8.000000000000000166533453693773481063544750213623e-02,1.988804308736009593405746898042707471176981925964e-02,-2.994802779696444441914771061874489532783627510071e-02,1.000000000000000020816681711721685132943093776703e-02
8.999999999999999666933092612453037872910499572754e-02,1.987356149197785568083496343660954153165221214294e-02,-2.994205499222301822270786431090527912601828575134e-02,1.000000000000000020816681711721685132943093776703e-02
9.999999999999999167332731531132594682276248931885e-02,1.985897165094974506360792076975485542789101600647e-02,-2.993619854701117313777736228530557127669453620911e-02,1.000000000000000020816681711721685132943093776703e-02
1.099999999999999866773237044981215149164199829102e-01,1.984427355436088960538576486669626319780945777893e-02,-2.993045845619253172986695687995961634442210197449e-02,1.000000000000000020816681711721685132943093776703e-02
1.199999999999999816813200936849170830100774765015e-01,1.982946719169727950449200193361320998519659042358e-02,-2.992483471525550844938301509046141291037201881409e-02,1.000000000000000020816681711721685132943093776703e-02
1.299999999999999766853164828717126511037349700928e-01,1.981455255184483982278109692742873448878526687622e-02,-2.991932732031393413207887022053910186514258384705e-02,1.000000000000000020816681711721685132943093776703e-02
1.399999999999999855671006798729649744927883148193e-01,1.979952962308850761274925389443524181842803955078e-02,-2.991393626810766315227141376453801058232784271240e-02,1.000000000000000020816681711721685132943093776703e-02
1.499999999999999944488848768742172978818416595459e-01,1.978439839311131251409214826253446517512202262878e-02,-2.990866155600316669826987947544694179669022560120e-02,1.000000000000000020816681711721685132943093776703e-02
1.600000000000000033306690738754696212708950042725e-01,1.976915884899347469749741890154837165027856826782e-02,-2.990350318199411563946377157208189601078629493713e-02,1.000000000000000020816681711721685132943093776703e-02
1.700000000000000122124532708767219446599483489990e-01,1.975381097721151321677801604437263449653983116150e-02,-2.989846114470195298506993708542722743004560470581e-02,1.000000000000000020816681711721685132943093776703e-02
1.800000000000000210942374678779742680490016937256e-01,1.973835476363736476934640506897267187014222145081e-02,-2.989353544337646287343268625136261107400059700012e-02,1.000000000000000020816681711721685132943093776703e-02
1.900000000000000299760216648792265914380550384521e-01,1.972279019353750592613572223399387439712882041931e-02,-2.988872607789630833630134532086231047287583351135e-02,1.000000000000000020816681711721685132943093776703e-02
2.000000000000000388578058618804789148271083831787e-01,1.970711725157209964764959408967115450650453567505e-02,-2.988403304876957947144866523103701183572411537170e-02,1.000000000000000020816681711721685132943093776703e-02
2.100000000000000477395900588817312382161617279053e-01,1.969133592179414526945890884235268458724021911621e-02,-2.987945635713431385971361464726214762777090072632e-02,1.000000000000000020816681711721685132943093776703e-02
2.200000000000000566213742558829835616052150726318e-01,1.967544618764863889603944357986620161682367324829e-02,-2.987499600475901698204417300530622014775872230530e-02,1.000000000000000020816681711721685132943093776703e-02
2.300000000000000655031584528842358849942684173584e-01,1.965944803197173726405644345049950061365962028503e-02,-2.987065199404316875875231573900236980989575386047e-02,1.000000000000000020816681711721685132943093776703e-02
2.400000000000000743849426498854882083833217620850e-01,1.964334143698994936122481647089443868026137351990e-02,-2.986642432801770580264033583262062165886163711548e-02,1.000000000000000020816681711721685132943093776703e-02
2.500000000000000555111512312578270211815834045410e-01,1.962712638431933151461628028755512787029147148132e-02,-2.986231301034551061102106928046850953251123428345e-02,1.000000000000000020816681711721685132943093776703e-02
2.600000000000000643929354282590793445706367492676e-01,1.961080285496467900951955698474193923175334930420e-02,-2.985831804532188341050336077842075610533356666565e-02,1.000000000000000020816681711721685132943093776703e-02
2.700000000000000732747196252603316679596900939941e-01,1.959437082931875240277008742850739508867263793945e-02,-2.985443943787499318509581769376381998881697654724e-02,1.000000000000000020816681711721685132943093776703e-02
2.800000000000000821565038222615839913487434387207e-01,1.957783028716149689718584170350368367508053779602e-02,-2.985067719356632870431056403504044283181428909302e-02,1.000000000000000020816681711721685132943093776703e-02
2.900000000000000910382880192628363147377967834473e-01,1.956118120765927559379093736424692906439304351807e-02,-2.984703131859113567347918660743744112551212310791e-02,1.000000000000000020816681711721685132943093776703e-02
3.000000000000000999200722162640886381268501281738e-01,1.954442356936412356072096940806659404188394546509e-02,-2.984350181977884000628087335371674271300435066223e-02,1.000000000000000020816681711721685132943093776703e-02
3.100000000000001088018564132653409615159034729004e-01,1.952755735021300190212834024805488297715783119202e-02,-2.984008870459345721948274388068966800346970558167e-02,1.000000000000000020816681711721685132943093776703e-02
3.200000000000001176836406102665932849049568176270e-01,1.951058252752705529653454163963033352047204971313e-02,-2.983679198113399141933932412484864471480250358582e-02,1.000000000000000020816681711721685132943093776703e-02
3.300000000000001265654248072678456082940101623535e-01,1.949349907801090422965195614324329653754830360413e-02,-2.983361165813483428799202101799892261624336242676e-02,1.000000000000000020816681711721685132943093776703e-02
3.400000000000001354472090042690979316830635070801e-01,1.947630697775192334941785077262466074898838996887e-02,-2.983054774496613284484602957036258885636925697327e-02,1.000000000000000020816681711721685132943093776703e-02
3.500000000000001443289932012703502550721168518066e-01,1.945900620221954410715703431833389913663268089294e-02,-2.982760025163416414684114386091096093878149986267e-02,1.000000000000000020816681711721685132943093776703e-02
3.600000000000001532107773982716025784611701965332e-01,1.944159672626456780708537053214968182146549224854e-02,-2.982476918878168223314695239878346910700201988220e-02,1.000000000000000020816681711721685132943093776703e-02
3.700000000000001620925615952728549018502235412598e-01,1.942407852411848212526024326507467776536941528320e-02,-2.982205456768826506985803348470653872936964035034e-02,1.000000000000000020816681711721685132943093776703e-02
3.800000000000001709743457922741072252392768859863e-01,1.940645156939278456742492551256873412057757377625e-02,-2.981945640027064761690134275795571738854050636292e-02,1.000000000000000020816681711721685132943093776703e-02
3.900000000000001798561299892753595486283302307129e-01,1.938871583507833715187551604230975499376654624939e-02,-2.981697469908303754770884097524685785174369812012e-02,1.000000000000000020816681711721685132943093776703e-02
4.000000000000001887379141862766118720173835754395e-01,1.937087129354470721454006820749782491475343704224e-02,-2.981460947731742749944316983601311221718788146973e-02,1.000000000000000020816681711721685132943093776703e-02
4.100000000000001976196983832778641954064369201660e-01,1.935291791653953250018638243545865407213568687439e-02,-2.981236074880388997598856803961098194122314453125e-02,1.000000000000000020816681711721685132943093776703e-02
4.200000000000002065014825802791165187954902648926e-01,1.933485567518789319252370262347540119662880897522e-02,-2.981022852801086184260093148168380139395594596863e-02,1.000000000000000020816681711721685132943093776703e-02
4.300000000000002153832667772803688421845436096191e-01,1.931668453999169782209222034907725173979997634888e-02,-2.980821283004541841221701758968265494331717491150e-02,1.000000000000000020816681711721685132943093776703e-02
4.400000000000002242650509742816211655735969543457e-01,1.929840448082907264359953103394218487665057182312e-02,-2.980631367065353712342279379754472756758332252502e-02,1.000000000000000020816681711721685132943093776703e-02
4.500000000000002331468351712828734889626502990723e-01,1.928001546695376836049184987587068462744355201721e-02,-2.980453106622034387118702625230071134865283966064e-02,1.000000000000000020816681711721685132943093776703e-02
4.600000000000002420286193682841258123517036437988e-01,1.926151746699456684952522778075945097953081130981e-02,-2.980286503377034892925401265983964549377560615540e-02,1.000000000000000020816681711721685132943093776703e-02
4.700000000000002509104035652853781357407569885254e-01,1.924291044895471217146543096987443277612328529358e-02,-2.980131559096768634198326708428794518113136291504e-02,1.000000000000000020816681711721685132943093776703e-02
4.800000000000002597921877622866304591298103332520e-01,1.922419438021134505123477254073804942891001701355e-02,-2.979988275611631168282578130401816451922059059143e-02,1.000000000000000020816681711721685132943093776703e-02
4.900000000000002686739719592878827825188636779785e-01,1.920536922751494776639979988885897910222411155701e-02,-2.979856654816021369058809398211451480165123939514e-02,1.000000000000000020816681711721685132943093776703e-02
5.000000000000002220446049250313080847263336181641e-01,1.918643495698879944399983799030451336875557899475e-02,-2.979736698668360855846160006876743864268064498901e-02,1.000000000000000020816681711721685132943093776703e-02
5.100000000000002309263891220325604081153869628906e-01,1.916739153412843482682248463788710068911314010620e-02,-2.979628409191110993692319652836886234581470489502e-02,1.000000000000000020816681711721685132943093776703e-02
5.200000000000002398081733190338127315044403076172e-01,1.914823892380113426470167325987858930602669715881e-02,-2.979531788470790587552983197383582592010498046875e-02,1.000000000000000020816681711721685132943093776703e-02
5.300000000000002486899575160350650548934936523438e-01,1.912897709024539982802792792426771484315395355225e-02,-2.979446838657990453969048871840641368180513381958e-02,1.000000000000000020816681711721685132943093776703e-02
5.400000000000002575717417130363173782825469970703e-01,1.910960599707045570738728201831690967082977294922e-02,-2.979373561967388686633206873466406250372529029846e-02,1.000000000000000020816681711721685132943093776703e-02
5.500000000000002664535259100375697016716003417969e-01,1.909012560725575208264714888173330109566450119019e-02,-2.979311960677763493343661593826254829764366149902e-02,1.000000000000000020816681711721685132943093776703e-02
5.600000000000002753353101070388220250606536865234e-01,1.907053588315049327817085611513903131708502769470e-02,-2.979262037132004645179073065719421720132231712341e-02,1.000000000000000020816681711721685132943093776703e-02
5.700000000000002842170943040400743484497070312500e-01,1.905083678647315204024437207408482208847999572754e-02,-2.979223793737125272618193605467240558937191963196e-02,1.000000000000000020816681711721685132943093776703e-02
5.800000000000002930988785010413266718387603759766e-01,1.903102827831101850897255189920542761683464050293e-02,-2.979197232964270192212552501587197184562683105469e-02,1.000000000000000020816681711721685132943093776703e-02
5.900000000000003019806626980425789952278137207031e-01,1.901111031911974572072843159276089863851666450500e-02,-2.979182357348725621037921484912658343091607093811e-02,1.000000000000000020816681711721685132943093776703e-02
6.000000000000003108624468950438313186168670654297e-01,1.899108286872290551894337795602041296660900115967e-02,-2.979179169489925421698828245098411571234464645386e-02,1.000000000000000020816681711721685132943093776703e-02
6.100000000000003197442310920450836420059204101562e-01,1.897094588631155834268504634110286133363842964172e-02,-2.979187672051457000388374751764786196872591972351e-02,1.000000000000000020816681711721685132943093776703e-02
6.200000000000003286260152890463359653949737548828e-01,1.895069933044384036247009817088837735354900360107e-02,-2.979207867761066858003360380280355457216501235962e-02,1.000000000000000020816681711721685132943093776703e-02
6.300000000000003375077994860475882887840270996094e-01,1.893034315904454714662996650531567865982651710510e-02,-2.979239759410663365701843474653287557885050773621e-02,1.000000000000000020816681711721685132943093776703e-02
6.400000000000003463895836830488406121730804443359e-01,1.890987732940473814435833332936454098671674728394e-02,-2.979283349856319193516007715061277849599719047546e-02,1.000000000000000020816681711721685132943093776703e-02
6.500000000000003552713678800500929355621337890625e-01,1.888930179818133769931165488742408342659473419189e-02,-2.979338642018272698130942899297224357724189758301e-02,1.000000000000000020816681711721685132943093776703e-02
6.600000000000003641531520770513452589511871337891e-01,1.886861652139677075767920655380294192582368850708e-02,-2.979405638880927575939949747407808899879455566406e-02,1.000000000000000020816681711721685132943093776703e-02
6.700000000000003730349362740525975823402404785156e-01,1.884782145443858469846531988878268748521804809570e-02,-2.979484343492851822210454315609240438789129257202e-02,1.000000000000000020816681711721685132943093776703e-02
6.800000000000003819167204710538499057292938232422e-01,1.882691655205909544990028336997056612744927406311e-02,-2.979574758966774261637056042673066258430480957031e-02,1.000000000000000020816681711721685132943093776703e-02
6.900000000000003907985046680551022291183471679688e-01,1.880590176837503707529819507726642768830060958862e-02,-2.979676888479581772783966187034820904955267906189e-02,1.000000000000000020816681711721685132943093776703e-02
7.000000000000003996802888650563545525074005126953e-01,1.878477705686722176725567123867222107946872711182e-02,-2.979790735272314083914579896372742950916290283203e-02,1.000000000000000020816681711721685132943093776703e-02
7.100000000000004085620730620576068758964538574219e-01,1.876354237038022412797921845140081131830811500549e-02,-2.979916302650156487152877105017978465184569358826e-02,1.000000000000000020816681711721685132943093776703e-02
7.200000000000004174438572590588591992855072021484e-01,1.874219766112205504127175004214223008602857589722e-02,-2.980053593982433246534213822087622247636318206787e-02,1.000000000000000020816681711721685132943093776703e-02
7.300000000000004263256414560601115226745605468750e-01,1.872074288066385289175386219540087040513753890991e-02,-2.980202612702598924387942247449245769530534744263e-02,1.000000000000000020816681711721685132943093776703e-02
7.400000000000004352074256530613638460636138916016e-01,1.869917797993959907021377375713200308382511138916e-02,-2.980363362308227626051859715516911819577217102051e-02,1.000000000000000020816681711721685132943093776703e-02
7.500000000000004440892098500626161694526672363281e-01,1.867750290924581960116945822392153786495327949524e-02,-2.980535846361002244586657639047189150005578994751e-02,1.000000000000000020816681711721685132943093776703e-02
7.600000000000004529709940470638684928417205810547e-01,1.865571761824132146490029526830767281353473663330e-02,-2.980720068486701623822199280766653828322887420654e-02,1.000000000000000020816681711721685132943093776703e-02
7.700000000000004618527782440651208162307739257812e-01,1.863382205594692198058481835687416605651378631592e-02,-2.980916032375187027514407134276552824303507804871e-02,1.000000000000000020816681711721685132943093776703e-02
7.800000000000004707345624410663731396198272705078e-01,1.861181617074519206722627018280036281794309616089e-02,-2.981123741780386873778674328150373185053467750549e-02,1.000000000000000020816681711721685132943093776703e-02
7.900000000000004796163466380676254630088806152344e-01,1.858969991038022032125986982009635539725422859192e-02,-2.981343200520280081744495248585735680535435676575e-02,1.000000000000000020816681711721685132943093776703e-02
8.000000000000004884981308350688777863979339599609e-01,1.856747322195737015526617597060976549983024597168e-02,-2.981574412476879418210096162056288449093699455261e-02,1.000000000000000020816681711721685132943093776703e-02
8.100000000000004973799150320701301097869873046875e-01,1.854513605194306469226006583994603715837001800537e-02,-2.981817381596211721794809079710830701515078544617e-02,1.000000000000000020816681711721685132943093776703e-02
8.200000000000005062616992290713824331760406494141e-01,1.852268834616457165997971401338872965425252914429e-02,-2.982072111888298127091445621772436425089836120605e-02,1.000000000000000020816681711721685132943093776703e-02
8.300000000000005151434834260726347565650939941406e-01,1.850013004980979869351642719266237691044807434082e-02,-2.982338607427132207150499709769064793363213539124e-02,1.000000000000000020816681711721685132943093776703e-02
8.400000000000005240252676230738870799541473388672e-01,1.847746110742710251573228674715210217982530593872e-02,-2.982616872350658115964350258764170575886964797974e-02,1.000000000000000020816681711721685132943093776703e-02
8.500000000000005329070518200751394033432006835938e-01,1.845468146292511546491255103319417685270309448242e-02,-2.982906910860745608449207111334544606506824493408e-02,1.000000000000000020816681711721685132943093776703e-02
8.600000000000005417888360170763917267322540283203e-01,1.843179105957256161407720185252401279285550117493e-02,-2.983208727223165060427056971548154251649975776672e-02,1.000000000000000020816681711721685132943093776703e-02
8.700000000000005506706202140776440501213073730469e-01,1.840878983999810411531505849325185408815741539001e-02,-2.983522325767561100828828557496308349072933197021e-02,1.000000000000000020816681711721685132943093776703e-02
8.800000000000005595524044110788963735103607177734e-01,1.838567774619019948301179567806684644892811775208e-02,-2.983847710887424162229386581657308852300047874451e-02,1.000000000000000020816681711721685132943093776703e-02
8.900000000000005684341886080801486968994140625000e-01,1.836245471949695187707796151244110660627484321594e-02,-2.984184887040062031382525731260102475062012672424e-02,1.000000000000000020816681711721685132943093776703e-02
