time,u0,u1,tau
0.000000000000000000000000000000000000000000000000e+00,-1.000000000000000888178419700125232338905334472656e-02,-1.000000000000000888178419700125232338905334472656e-02,1.000000000000000020816681711721685132943093776703e-02
1.000000000000000020816681711721685132943093776703e-02,-1.000409876637789116649024379057664191350340843201e-02,-1.000393873915912494598767779052650439552962779999e-02,1.000000000000000020816681711721685132943093776703e-02
2.000000000000000041633363423443370265886187553406e-02,-1.000823672628837861242612206069679814390838146210e-02,-1.000791655004034351461594809507005265913903713226e-02,1.000000000000000020816681711721685132943093776703e-02
2.999999999999999888977697537484345957636833190918e-02,-1.001241392593236155528213515708557679317891597748e-02,-1.001193347700226644880761028844062821008265018463e-02,1.000000000000000020816681711721685132943093776703e-02
4.000000000000000083266726846886740531772375106812e-02,-1.001663041173692439422815425587032223120331764221e-02,-1.001598956462379855225641733795782784000039100647e-02,1.000000000000000020816681711721685132943093776703e-02
5.000000000000000277555756156289135105907917022705e-02,-1.002088623035575151720699693669303087517619132996e-02,-1.002008485770448931173604023570078425109386444092e-02,1.000000000000000020816681711721685132943093776703e-02
6.000000000000000471844785465691529680043458938599e-02,-1.002518142866953496095128173237753799185156822205e-02,-1.002421940126487463762483542950576520524919033051e-02,1.000000000000000020816681711721685132943093776703e-02
7.000000000000000666133814775093924254179000854492e-02,-1.002951605378636472376552291052576038055121898651e-02,-1.002839324054680819608975639312120620161294937134e-02,1.000000000000000020816681711721685132943093776703e-02
8.000000000000000166533453693773481063544750213623e-02,-1.003389015304213295609603306957069435156881809235e-02,-1.003260642101379100654678921955564874224364757538e-02,1.000000000000000020816681711721685132943093776703e-02
8.999999999999999666933092612453037872910499572754e-02,-1.003830377400091733441911401314428076148033142090e-02,-1.003685898835129930439791223761858418583869934082e-02,1.000000000000000020816681711721685132943093776703e-02
9.999999999999999167332731531132594682276248931885e-02,-1.004275696445537484347010348528783652000129222870e-02,-1.004115098846711066904457965165420318953692913055e-02,1.000000000000000020816681711721685132943093776703e-02
1.099999999999999866773237044981215149164199829102e-01,-1.004724977242712688485504202162701403722167015076e-02,-1.004548246749161974356034932043257867917418479919e-02,1.000000000000000020816681711721685132943093776703e-02
1.199999999999999816813200936849170830100774765015e-01,-1.005178224616713918149191187012547743506729602814e-02,-1.004985347177815568908698651284794323146343231201e-02,1.000000000000000020816681711721685132943093776703e-02
1.299999999999999766853164828717126511037349700928e-01,-1.005635443415610168205187591183857875876128673553e-02,-1.005426404790329790450709168680987204425036907196e-02,1.000000000000000020816681711721685132943093776703e-02
1.399999999999999855671006798729649744927883148193e-01,-1.006096638510480326123008865124575095251202583313e-02,-1.005871424266717786832892045367771061137318611145e-02,1.000000000000000020816681711721685132943093776703e-02
1.499999999999999944488848768742172978818416595459e-01,-1.006561814795450468529303122977580642327666282654e-02,-1.006320410309378965418858342673047445714473724365e-02,1.000000000000000020816681711721685132943093776703e-02
1.600000000000000033306690738754696212708950042725e-01,-1.007030977187730463873194253210385795682668685913e-02,-1.006773367643128830328791423198708798736333847046e-02,1.000000000000000020816681711721685132943093776703e-02
1.700000000000000122124532708767219446599483489990e-01,-1.007504130627650748563972626925533404573798179626e-02,-1.007230301015228819683233751902662334032356739044e-02,1.000000000000000020816681711721685132943093776703e-02
1.800000000000000210942374678779742680490016937256e-01,-1.007981280078698409219395415448161656968295574188e-02,-1.007691215195415622429830904138725600205361843109e-02,1.000000000000000020816681711721685132943093776703e-02
1.900000000000000299760216648792265914380550384521e-01,-1.008462430527552917969291712552148965187370777130e-02,-1.008156114975930321697727976015812600962817668915e-02,1.000000000000000020816681711721685132943093776703e-02
2.000000000000000388578058618804789148271083831787e-01,-1.008947586984121520814472461324839969165623188019e-02,-1.008625005171546844262575604034282150678336620331e-02,1.000000000000000020816681711721685132943093776703e-02
2.100000000000000477395900588817312382161617279053e-01,-1.009436754481574799457987978712480980902910232544e-02,-1.009097890619600236539188387041576788760721683502e-02,1.000000000000000020816681711721685132943093776703e-02
2.200000000000000566213742558829835616052150726318e-01,-1.009929938076380671885257100939270458184182643890e-02,-1.009574776180014420157160515145733370445668697357e-02,1.000000000000000020816681711721685132943093776703e-02
2.300000000000000655031584528842358849942684173584e-01,-1.010427142848339780722977110372085007838904857635e-02,-1.010055666735329774064133800948184216395020484924e-02,1.000000000000000020816681711721685132943093776703e-02
2.400000000000000743849426498854882083833217620850e-01,-1.010928373900618626457514892535982653498649597168e-02,-1.010540567190730196212022917734429938718676567078e-02,1.000000000000000020816681711721685132943093776703e-02
2.500000000000000555111512312578270211815834045410e-01,-1.011433636359784261904426472256091074086725711823e-02,-1.011029482474069818298545442303293384611606597900e-02,1.000000000000000020816681711721685132943093776703e-02
2.600000000000000643929354282590793445706367492676e-01,-1.011942935375836731537457779950273106805980205536e-02,-1.011522417535899200091709104754045256413519382477e-02,1.000000000000000020816681711721685132943093776703e-02
2.700000000000000732747196252603316679596900939941e-01,-1.012456276122242725123978601686758338473737239838e-02,-1.012019377349491350281951440592820290476083755493e-02,1.000000000000000020816681711721685132943093776703e-02
2.800000000000000821565038222615839913487434387207e-01,-1.012973663795968190526330943157518049702048301697e-02,-1.012520366910867226917236649796905112452805042267e-02,1.000000000000000020816681711721685132943093776703e-02
2.900000000000000910382880192628363147377967834473e-01,-1.013495103617510252613787002928802394308149814606e-02,-1.013025391238820890893457260517607210204005241394e-02,1.000000000000000020816681711721685132943093776703e-02
3.000000000000000999200722162640886381268501281738e-01,-1.014020600830929652591549938733805902302265167236e-02,-1.013534455374943965555445402060286141932010650635e-02,1.000000000000000020816681711721685132943093776703e-02
3.100000000000001088018564132653409615159034729004e-01,-1.014550160703882146495669047681076335720717906952e-02,-1.014047564383650443242679273225803626701235771179e-02,1.000000000000000020816681711721685132943093776703e-02
3.200000000000001176836406102665932849049568176270e-01,-1.015083788527649730215607348782214103266596794128e-02,-1.014564723352200104056208829206298105418682098389e-02,1.000000000000000020816681711721685132943093776703e-02
3.300000000000001265654248072678456082940101623535e-01,-1.015621489617171344099766372437443351373076438904e-02,-1.015085937390722628514971859203797066584229469299e-02,1.000000000000000020816681711721685132943093776703e-02
3.400000000000001354472090042690979316830635070801e-01,-1.016163269311073924505706145282601937651634216309e-02,-1.015611211632240148960981684922444401308894157410e-02,1.000000000000000020816681711721685132943093776703e-02
3.500000000000001443289932012703502550721168518066e-01,-1.016709132971701720626889198229036992415785789490e-02,-1.016140551232690494853905249783565523102879524231e-02,1.000000000000000020816681711721685132943093776703e-02
3.600000000000001532107773982716025784611701965332e-01,-1.017259085985146999098205355949176009744405746460e-02,-1.016673961370949050286860426695056958124041557312e-02,1.000000000000000020816681711721685132943093776703e-02
3.700000000000001620925615952728549018502235412598e-01,-1.017813133761278840405672951874294085428118705750e-02,-1.017211447248851131919256118862904259003698825836e-02,1.000000000000000020816681711721685132943093776703e-02
3.800000000000001709743457922741072252392768859863e-01,-1.018371281733772455713182836234409478493034839630e-02,-1.017753014091213152603199176837733830325305461884e-02,1.000000000000000020816681711721685132943093776703e-02
3.900000000000001798561299892753595486283302307129e-01,-1.018933535360137809799851993375341407954692840576e-02,-1.018298667145853785009901315561364754103124141693e-02,1.000000000000000020816681711721685132943093776703e-02
4.000000000000001887379141862766118720173835754395e-01,-1.019499900121747723580334366033639525994658470154e-02,-1.018848411683614778311390836051941732876002788544e-02,1.000000000000000020816681711721685132943093776703e-02
4.100000000000001976196983832778641954064369201660e-01,-1.020070381523865976625131679611513391137123107910e-02,-1.019402252998381080972833956366230268031358718872e-02,1.000000000000000020816681711721685132943093776703e-02
4.200000000000002065014825802791165187954902648926e-01,-1.020644985095675236208556668771052500233054161072e-02,-1.019960196407100790072508544881202396936714649200e-02,1.000000000000000020816681711721685132943093776703e-02
4.300000000000002153832667772803688421845436096191e-01,-1.021223716390303425105567924902061349712312221527e-02,-1.020522247249804753677082658214203547686338424683e-02,1.000000000000000020816681711721685132943093776703e-02
4.400000000000002242650509742816211655735969543457e-01,-1.021806580984851303695037927354860585182905197144e-02,-1.021088410889624958910459895378153305500745773315e-02,1.000000000000000020816681711721685132943093776703e-02
4.500000000000002331468351712828734889626502990723e-01,-1.022393584480418490811892695546703180298209190369e-02,-1.021658692712813960856710338021002826280891895294e-02,1.000000000000000020816681711721685132943093776703e-02
4.600000000000002420286193682841258123517036437988e-01,-1.022984732502129484599251441068190615624189376831e-02,-1.022233098128762403267177916177388397045433521271e-02,1.000000000000000020816681711721685132943093776703e-02
4.700000000000002509104035652853781357407569885254e-01,-1.023580030699159509888218622108979616314172744751e-02,-1.022811632570017059684630567062413319945335388184e-02,1.000000000000000020816681711721685132943093776703e-02
4.800000000000002597921877622866304591298103332520e-01,-1.024179484744759671688285607160651125013828277588e-02,-1.023394301492298007205672405461882590316236019135e-02,1.000000000000000020816681711721685132943093776703e-02
4.900000000000002686739719592878827825188636779785e-01,-1.024783100336281935205384741038869833573698997498e-02,-1.023981110374515800243155894122537574730813503265e-02,1.000000000000000020816681711721685132943093776703e-02
5.000000000000002220446049250313080847263336181641e-01,-1.025390883195203411970553020182705949991941452026e-02,-1.024572064718787603454508428058034041896462440491e-02,1.000000000000000020816681711721685132943093776703e-02
5.100000000000002309263891220325604081153869628906e-01,-1.026002839067150645968595767953956965357065200806e-02,-1.025167170050453151197711321174210752360522747040e-02,1.000000000000000020816681711721685132943093776703e-02
5.200000000000002398081733190338127315044403076172e-01,-1.026618973721923379349707516894341097213327884674e-02,-1.025766431918090706987278792894358048215508460999e-02,1.000000000000000020816681711721685132943093776703e-02
5.300000000000002486899575160350650548934936523438e-01,-1.027239292953517797724050097940562409348785877228e-02,-1.026369855893531982116151368700229795649647712708e-02,1.000000000000000020816681711721685132943093776703e-02
5.400000000000002575717417130363173782825469970703e-01,-1.027863802580149428511635534277957049198448657990e-02,-1.026977447571876533860546487630927003920078277588e-02,1.000000000000000020816681711721685132943093776703e-02
5.500000000000002664535259100375697016716003417969e-01,-1.028492508444275518875166142152011161670088768005e-02,-1.027589212571506510629504305143200326710939407349e-02,1.000000000000000020816681711721685132943093776703e-02
5.600000000000002753353101070388220250606536865234e-01,-1.029125416412617587125222229360588244162499904633e-02,-1.028205156534100356280347909887495916336774826050e-02,1.000000000000000020816681711721685132943093776703e-02
5.700000000000002842170943040400743484497070312500e-01,-1.029762532376182933291364207661899854429066181183e-02,-1.028825285124645820544753149761163513176143169403e-02,1.000000000000000020816681711721685132943093776703e-02
5.800000000000002930988785010413266718387603759766e-01,-1.030403862250285629276191912140347994863986968994e-02,-1.029449604031453489871861251003792858682572841644e-02,1.000000000000000020816681711721685132943093776703e-02
5.900000000000003019806626980425789952278137207031e-01,-1.031049411974568029426446713614495820365846157074e-02,-1.030078118966168583547915460485455696471035480499e-02,1.000000000000000020816681711721685132943093776703e-02
6.000000000000003108624468950438313186168670654297e-01,-1.031699187513020893325332849599362816661596298218e-02,-1.030710835663783270232940481037076096981763839722e-02,1.000000000000000020816681711721685132943093776703e-02
6.100000000000003197442310920450836420059204101562e-01,-1.032353194854003508584838755268719978630542755127e-02,-1.031347759882648290608031516057963017374277114868e-02,1.000000000000000020816681711721685132943093776703e-02
6.200000000000003286260152890463359653949737548828e-01,-1.033011440010263640165710796736675547435879707336e-02,-1.031988897404484059605600521081214537844061851501e-02,1.000000000000000020816681711721685132943093776703e-02
6.300000000000003375077994860475882887840270996094e-01,-1.033673929018956612335689015935713541693985462189e-02,-1.032634254034390901277884466935574891977012157440e-02,1.000000000000000020816681711721685132943093776703e-02
6.400000000000003463895836830488406121730804443359e-01,-1.034340667941664217155395277814022847451269626617e-02,-1.033283835600859804082496395949419820681214332581e-02,1.000000000000000020816681711721685132943093776703e-02
6.500000000000003552713678800500929355621337890625e-01,-1.035011662864413102547178624490697984583675861359e-02,-1.033937647955781788389195696709066396579146385193e-02,1.000000000000000020816681711721685132943093776703e-02
6.600000000000003641531520770513452589511871337891e-01,-1.035686919897692986891613031730230432003736495972e-02,-1.034595696974456927041963183455663966014981269836e-02,1.000000000000000020816681711721685132943093776703e-02
6.700000000000003730349362740525975823402404785156e-01,-1.036366445176474179734604774694162188097834587097e-02,-1.035257988555603539393423773162794532254338264465e-02,1.000000000000000020816681711721685132943093776703e-02
6.800000000000003819167204710538499057292938232422e-01,-1.037050244860224582077457000650611007586121559143e-02,-1.035924528621366344505183576529816491529345512390e-02,1.000000000000000020816681711721685132943093776703e-02
6.900000000000003907985046680551022291183471679688e-01,-1.037738325132926686666934301683795638382434844971e-02,-1.036595323117323920458776598252370604313910007477e-02,1.000000000000000020816681711721685132943093776703e-02
7.000000000000003996802888650563545525074005126953e-01,-1.038430692203093884395936896680723293684422969818e-02,-1.037270378012496510611306632654304848983883857727e-02,1.000000000000000020816681711721685132943093776703e-02
7.100000000000004085620730620576068758964538574219e-01,-1.039127352303786250287132020275748800486326217651e-02,-1.037949699299352789017003573235342628322541713715e-02,1.000000000000000020816681711721685132943093776703e-02
7.200000000000004174438572590588591992855072021484e-01,-1.039828311692626329476585311795133748091757297516e-02,-1.038633292993815931959389331495913211256265640259e-02,1.000000000000000020816681711721685132943093776703e-02
7.300000000000004263256414560601115226745605468750e-01,-1.040533576651813882363306618117348989471793174744e-02,-1.039321165135269862955791353442691615782678127289e-02,1.000000000000000020816681711721685132943093776703e-02
7.400000000000004352074256530613638460636138916016e-01,-1.041243153488140456286448198852667701430618762970e-02,-1.040013321786564283455422952329172403551638126373e-02,1.000000000000000020816681711721685132943093776703e-02
7.500000000000004440892098500626161694526672363281e-01,-1.041957048533003783730155333842049003578722476959e-02,-1.040709769034019877009811239076952915638685226440e-02,1.000000000000000020816681711721685132943093776703e-02
7.600000000000004529709940470638684928417205810547e-01,-1.042675268142421486639026539933183812536299228668e-02,-1.041410512987432472609139466612759861163794994354e-02,1.000000000000000020816681711721685132943093776703e-02
7.700000000000004618527782440651208162307739257812e-01,-1.043397818697044260316530994714412372559309005737e-02,-1.042115559780077381490936971886185347102582454681e-02,1.000000000000000020816681711721685132943093776703e-02
7.800000000000004707345624410663731396198272705078e-01,-1.044124706602168710378730764887222903780639171600e-02,-1.042824915568712346169988336441747378557920455933e-02,1.000000000000000020816681711721685132943093776703e-02
7.900000000000004796163466380676254630088806152344e-01,-1.044855938287750016235655436958040809258818626404e-02,-1.043538586533580489468242546990950359031558036804e-02,1.000000000000000020816681711721685132943093776703e-02
8.000000000000004884981308350688777863979339599609e-01,-1.045591520208413380266243564165051793679594993591e-02,-1.044256578878413090072374558303636149503290653229e-02,1.000000000000000020816681711721685132943093776703e-02
8.100000000000004973799150320701301097869873046875e-01,-1.046331458843465997410326906447153305634856224060e-02,-1.044978898830431143784913672334369039162993431091e-02,1.000000000000000020816681711721685132943093776703e-02
8.200000000000005062616992290713824331760406494141e-01,-1.047075760696907983926529084328649332746863365173e-02,-1.045705552640347098247719515029530157335102558136e-02,1.000000000000000020816681711721685132943093776703e-02
8.300000000000005151434834260726347565650939941406e-01,-1.047824432297442785733121439761816873215138912201e-02,-1.046436546582365199886677231688736355863511562347e-02,1.000000000000000020816681711721685132943093776703e-02
8.400000000000005240252676230738870799541473388672e-01,-1.048577480198487760221226494650181848555803298950e-02,-1.047171886954182187801087877687677973881363868713e-02,1.000000000000000020816681711721685132943093776703e-02
8.500000000000005329070518200751394033432006835938e-01,-1.049334910978183196816893030245410045608878135681e-02,-1.047911580076987293763668418478118837811052799225e-02,1.000000000000000020816681711721685132943093776703e-02
8.600000000000005417888360170763917267322540283203e-01,-1.050096731239402031432561557267035823315382003784e-02,-1.048655632295461374858813741184349055401980876923e-02,1.000000000000000020816681711721685132943093776703e-02
8.700000000000005506706202140776440501213073730469e-01,-1.050862947609758520084444199937934172339737415314e-02,-1.049404049977775525703815873157509486190974712372e-02,1.000000000000000020816681711721685132943093776703e-02
8.800000000000005595524044110788963735103607177734e-01,-1.051633566741616565565209384658373892307281494141e-02,-1.050156839515589864142430798210625653155148029327e-02,1.000000000000000020816681711721685132943093776703e-02
8.900000000000005684341886080801486968994140625000e-01,-1.052408595312097003282580942595814121887087821960e-02,-1.050914007324050929159664491407966124825179576874e-02,1.000000000000000020816681711721685132943093776703e-02
