time,u0,u1,tau
0.000000000000000000000000000000000000000000000000e+00,1.999999999999999000799277837359113618731498718262e-02,-2.000000000000000388578058618804789148271083831787e-02,1.000000000000000020816681711721685132943093776703e-02
1.000000000000000020816681711721685132943093776703e-02,1.999132263911129400724142612943978747352957725525e-02,-1.999267737291840485447380615369183942675590515137e-02,1.000000000000000020816681711721685132943093776703e-02
2.000000000000000041633363423443370265886187553406e-02,1.998257399579802737199507589593849843367934226990e-02,-1.998543237379241804818619243633293081074953079224e-02,1.000000000000000020816681711721685132943093776703e-02
2.999999999999999888977697537484345957636833190918e-02,1.997375409063722323521616885955154430121183395386e-02,-1.997826497510513804600762455265794415026903152466e-02,1.000000000000000020816681711721685132943093776703e-02
4.000000000000000083266726846886740531772375106812e-02,1.996486294381866546943093965182924875989556312561e-02,-1.997117514974249344317236420920380624011158943176e-02,1.000000000000000020816681711721685132943093776703e-02
5.000000000000000277555756156289135105907917022705e-02,1.995590057514439602526223893619317095726728439331e-02,-1.996416287099368747082195341135957278311252593994e-02,1.000000000000000020816681711721685132943093776703e-02
6.000000000000000471844785465691529680043458938599e-02,1.994686700402824308664406771640642546117305755615e-02,-1.995722811255161779908640085068327607586979866028e-02,1.000000000000000020816681711721685132943093776703e-02
7.000000000000000666133814775093924254179000854492e-02,1.993776224949533534824830383058724692091345787048e-02,-1.995037084851330674850622415306133916601538658142e-02,1.000000000000000020816681711721685132943093776703e-02
8.000000000000000166533453693773481063544750213623e-02,1.992858633018163710959314016690768767148256301880e-02,-1.994359105338030374587887649795447941869497299194e-02,1.000000000000000020816681711721685132943093776703e-02
8.999999999999999666933092612453037872910499572754e-02,1.991933926433349724693933069374907063320279121399e-02,-1.993688870205908778010517323764361208304762840271e-02,1.000000000000000020816681711721685132943093776703e-02
9.999999999999999167332731531132594682276248931885e-02,1.991002106980719471573948453624325338751077651978e-02,-1.993026376986147332748267047008994268253445625305e-02,1.000000000000000020816681711721685132943093776703e-02
1.099999999999999866773237044981215149164199829102e-01,1.990063176406848405308736005281389225274324417114e-02,-1.992371623250499199087037993649573763832449913025e-02,1.000000000000000020816681711721685132943093776703e-02
1.199999999999999816813200936849170830100774765015e-01,1.989117136419217557463667844785959459841251373291e-02,-1.991724606611327413885348391886509489268064498901e-02,1.000000000000000020816681711721685132943093776703e-02
1.299999999999999766853164828717126511037349700928e-01,1.988163988686169128539127370913774939253926277161e-02,-1.991085324721642707546109818395052570849657058716e-02,1.000000000000000020816681711721685132943093776703e-02
1.399999999999999855671006798729649744927883148193e-01,1.987203734836866242385866598851862363517284393311e-02,-1.990453775275139239320232320551440352573990821838e-02,1.000000000000000020816681711721685132943093776703e-02
1.499999999999999944488848768742172978818416595459e-01,1.986236376461249578118106740021175937727093696594e-02,-1.989829956006231720389010320104716811329126358032e-02,1.000000000000000020816681711721685132943093776703e-02
1.600000000000000033306690738754696212708950042725e-01,1.985261915109998165362981126236263662576675415039e-02,-1.989213864690089067499556563234364148229360580444e-02,1.000000000000000020816681711721685132943093776703e-02
1.700000000000000122124532708767219446599483489990e-01,1.984280352294489138675892547780676977708935737610e-02,-1.988605499142670138268407242776447674259543418884e-02,1.000000000000000020816681711721685132943093776703e-02
1.800000000000000210942374678779742680490016937256e-01,1.983291689486758532789956177566637052223086357117e-02,-1.988004857220756343982870362196990754455327987671e-02,1.000000000000000020816681711721685132943093776703e-02
1.900000000000000299760216648792265914380550384521e-01,1.982295928119463118699528081378957722336053848267e-02,-1.987411936821984956291764490288187516853213310242e-02,1.000000000000000020816681711721685132943093776703e-02
2.000000000000000388578058618804789148271083831787e-01,1.981293069585842586688428923480387311428785324097e-02,-1.986826735884881026117376734418940031901001930237e-02,1.000000000000000020816681711721685132943093776703e-02
2.100000000000000477395900588817312382161617279053e-01,1.980283115239683464081643649024044862017035484314e-02,-1.986249252388888955622725518423976609483361244202e-02,1.000000000000000020816681711721685132943093776703e-02
2.200000000000000566213742558829835616052150726318e-01,1.979266066395281645218240385020180838182568550110e-02,-1.985679484354403029344737774408713448792695999146e-02,1.000000000000000020816681711721685132943093776703e-02
2.300000000000000655031584528842358849942684173584e-01,1.978241924327408043926546099555707769468426704407e-02,-1.985117429842796904493340548469859641045331954956e-02,1.000000000000000020816681711721685132943093776703e-02
2.400000000000000743849426498854882083833217620850e-01,1.977210690271274245999322261013730894774198532104e-02,-1.984563086956453101250552606416022172197699546814e-02,1.000000000000000020816681711721685132943093776703e-02
2.500000000000000555111512312578270211815834045410e-01,1.976172365422497814724245301931659923866391181946e-02,-1.984016453838791799180185648765473160892724990845e-02,1.000000000000000020816681711721685132943093776703e-02
2.600000000000000643929354282590793445706367492676e-01,1.975126950937069678082558255027834093198180198669e-02,-1.983477528674297205024679158213984919711947441101e-02,1.000000000000000020816681711721685132943093776703e-02
2.700000000000000732747196252603316679596900939941e-01,1.974074447931321862892417584589566104114055633545e-02,-1.982946309688545655225411223909759428352117538452e-02,1.000000000000000020816681711721685132943093776703e-02
2.800000000000000821565038222615839913487434387207e-01,1.973014857481895228952240017861186061054468154907e-02,-1.982422795148231636774838193559844512492418289185e-02,1.000000000000000020816681711721685132943093776703e-02
2.900000000000000910382880192628363147377967834473e-01,1.971948180625709284852220548600598704069852828979e-02,-1.981906983361192073345158348729455610737204551697e-02,1.000000000000000020816681711721685132943093776703e-02
3.000000000000000999200722162640886381268501281738e-01,1.970874418359931656841155245274421758949756622314e-02,-1.981398872676431999195756361586973071098327636719e-02,1.000000000000000020816681711721685132943093776703e-02
3.100000000000001088018564132653409615159034729004e-01,1.969793571641948598527349645337380934506654739380e-02,-1.980898461484148151412476579480426153168082237244e-02,1.000000000000000020816681711721685132943093776703e-02
3.200000000000001176836406102665932849049568176270e-01,1.968705641389336541413612735595961567014455795288e-02,-1.980405748215752562146896309513977030292153358459e-02,1.000000000000000020816681711721685132943093776703e-02
3.300000000000001265654248072678456082940101623535e-01,1.967610628479834339321641323294898029416799545288e-02,-1.979920731343894069187427930955891497433185577393e-02,1.000000000000000020816681711721685132943093776703e-02
3.400000000000001354472090042690979316830635070801e-01,1.966508533751315165871709211842244258150458335876e-02,-1.979443409382480520419811398369347443804144859314e-02,1.000000000000000020816681711721685132943093776703e-02
3.500000000000001443289932012703502550721168518066e-01,1.965399358001761534464613134787214221432805061340e-02,-1.978973780886699937453521158658986678346991539001e-02,1.000000000000000020816681711721685132943093776703e-02
3.600000000000001532107773982716025784611701965332e-01,1.964283101989237542706057126906671328470110893250e-02,-1.978511844453040638414087482033210108056664466858e-02,1.000000000000000020816681711721685132943093776703e-02
3.700000000000001620925615952728549018502235412598e-01,1.963159766431865627112074434990063309669494628906e-02,-1.978057598719309972956637011520797386765480041504e-02,1.000000000000000020816681711721685132943093776703e-02
3.800000000000001709743457922741072252392768859863e-01,1.962029352007801583090973451817262684926390647888e-02,-1.977611042364653751168823703210364328697323799133e-02,1.000000000000000020816681711721685132943093776703e-02
3.900000000000001798561299892753595486283302307129e-01,1.960891859355210972704064431582082761451601982117e-02,-1.977172174109573937750283789682725910097360610962e-02,1.000000000000000020816681711721685132943093776703e-02
4.000000000000001887379141862766118720173835754395e-01,1.959747289072246226315776596038631396368145942688e-02,-1.976740992715946346192090743443259270861744880676e-02,1.000000000000000020816681711721685132943093776703e-02
4.100000000000001976196983832778641954064369201660e-01,1.958595641717024438133165631370502524077892303467e-02,-1.976317496987036251288039068185753421857953071594e-02,1.000000000000000020816681711721685132943093776703e-02
4.200000000000002065014825802791165187954902648926e-01,1.957436917807606896468897161867062095552682876587e-02,-1.975901685767515042480013676140515599399805068970e-02,1.000000000000000020816681711721685132943093776703e-02
4.300000000000002153832667772803688421845436096191e-01,1.956271117821976879280754246792639605700969696045e-02,-1.975493557943474795535188093253964325413107872009e-02,1.000000000000000020816681711721685132943093776703e-02
4.400000000000002242650509742816211655735969543457e-01,1.955098242198021266102792026231327326968312263489e-02,-1.975093112442442150333832273645384702831506729126e-02,1.000000000000000020816681711721685132943093776703e-02
4.500000000000002331468351712828734889626502990723e-01,1.953918291333510415253016390124685131013393402100e-02,-1.974700348233392535601815609425102593377232551575e-02,1.000000000000000020816681711721685132943093776703e-02
4.600000000000002420286193682841258123517036437988e-01,1.952731265586080122709233819477958604693412780762e-02,-1.974315264326762658919633963705564383417367935181e-02,1.000000000000000020816681711721685132943093776703e-02
4.700000000000002509104035652853781357407569885254e-01,1.951537165273213234040206032204878283664584159851e-02,-1.973937859774462302842046312889578985050320625305e-02,1.000000000000000020816681711721685132943093776703e-02
4.800000000000002597921877622866304591298103332520e-01,1.950335990672223684949670996502391062676906585693e-02,-1.973568133669886467962406584319978719577193260193e-02,1.000000000000000020816681711721685132943093776703e-02
4.900000000000002686739719592878827825188636779785e-01,1.949127742020239500986278358141134958714246749878e-02,-1.973206085147924740419433931037929141893982887268e-02,1.000000000000000020816681711721685132943093776703e-02
5.000000000000002220446049250313080847263336181641e-01,1.947912419514187185032305649201589403674006462097e-02,-1.972851713384971700238068592625495512038469314575e-02,1.000000000000000020816681711721685132943093776703e-02
5.100000000000002309263891220325604081153869628906e-01,1.946690023310776798681764887533063301816582679749e-02,-1.972505017598936635780937365325371501967310905457e-02,1.000000000000000020816681711721685132943093776703e-02
5.200000000000002398081733190338127315044403076172e-01,1.945460553526488778341985153019777499139308929443e-02,-1.972165997049250482642257509269256843253970146179e-02,1.000000000000000020816681711721685132943093776703e-02
5.300000000000002486899575160350650548934936523438e-01,1.944224010237559016611719187039852840825915336609e-02,-1.971834651036874497265216632513329386711120605469e-02,1.000000000000000020816681711721685132943093776703e-02
5.400000000000002575717417130363173782825469970703e-01,1.942980393479967760050897140899905934929847717285e-02,-1.971510978904307195835876598266622750088572502136e-02,1.000000000000000020816681711721685132943093776703e-02
5.500000000000002664535259100375697016716003417969e-01,1.941729703249426425282209152101131621748208999634e-02,-1.971194980035589558453601455312309553846716880798e-02,1.000000000000000020816681711721685132943093776703e-02
5.600000000000002753353101070388220250606536865234e-01,1.940471939501366843705554288135317619889974594116e-02,-1.970886653856311274135570954513241304084658622742e-02,1.000000000000000020816681711721685132943093776703e-02
5.700000000000002842170943040400743484497070312500e-01,1.939207102150931200101879881003696937114000320435e-02,-1.970585999833614557208427697787556098774075508118e-02,1.000000000000000020816681711721685132943093776703e-02
5.800000000000002930988785010413266718387603759766e-01,1.937935191072961277347630471012962516397237777710e-02,-1.970293017476198657589314677807124098762869834900e-02,1.000000000000000020816681711721685132943093776703e-02
5.900000000000003019806626980425789952278137207031e-01,1.936656206101990129742063118101214058697223663330e-02,-1.970007706334322983288132036250317469239234924316e-02,1.000000000000000020816681711721685132943093776703e-02
6.000000000000003108624468950438313186168670654297e-01,1.935370147032233409389867517802485963329672813416e-02,-1.969730065999809529020403431331942556425929069519e-02,1.000000000000000020816681711721685132943093776703e-02
6.100000000000003197442310920450836420059204101562e-01,1.934077013617581733417871703295531915500760078430e-02,-1.969460096106043570096666428526077652350068092346e-02,1.000000000000000020816681711721685132943093776703e-02
6.200000000000003286260152890463359653949737548828e-01,1.932776805571594092025833333536866120994091033936e-02,-1.969197796327975744090643672734586289152503013611e-02,1.000000000000000020816681711721685132943093776703e-02
6.300000000000003375077994860475882887840270996094e-01,1.931469522567491603481926176755223423242568969727e-02,-1.968943166382121356949852497564279474318027496338e-02,1.000000000000000020816681711721685132943093776703e-02
6.400000000000003463895836830488406121730804443359e-01,1.930155164238151963007616984668857185170054435730e-02,-1.968696206026561076884995316049753455445170402527e-02,1.000000000000000020816681711721685132943093776703e-02
6.500000000000003552713678800500929355621337890625e-01,1.928833730176104238607237562064256053417921066284e-02,-1.968456915060937811867702862400619778782129287720e-02,1.000000000000000020816681711721685132943093776703e-02
6.600000000000003641531520770513452589511871337891e-01,1.927505219933525401621032813181955134496092796326e-02,-1.968225293326455668796448605917248642072081565857e-02,1.000000000000000020816681711721685132943093776703e-02
6.700000000000003730349362740525975823402404785156e-01,1.926169633022237204222903983463766053318977355957e-02,-1.968001340705877177938987188099417835474014282227e-02,1.000000000000000020816681711721685132943093776703e-02
6.800000000000003819167204710538499057292938232422e-01,1.924826968913703403862847096661425894126296043396e-02,-1.967785057123519129596012078309286152943968772888e-02,1.000000000000000020816681711721685132943093776703e-02
6.900000000000003907985046680551022291183471679688e-01,1.923477227039027334654086587306665023788809776306e-02,-1.967576442545248757709508424795785686001181602478e-02,1.000000000000000020816681711721685132943093776703e-02
7.000000000000003996802888650563545525074005126953e-01,1.922120406788951907373075300711207091808319091797e-02,-1.967375496978478535692325124273338587954640388489e-02,1.000000000000000020816681711721685132943093776703e-02
7.100000000000004085620730620576068758964538574219e-01,1.920756507513858221680713711521093500778079032898e-02,-1.967182220472160278368356500777736073359847068787e-02,1.000000000000000020816681711721685132943093776703e-02
7.200000000000004174438572590588591992855072021484e-01,1.919385528523766260011740314439521171152591705322e-02,-1.966996613116777856133943203076341887935996055603e-02,1.000000000000000020816681711721685132943093776703e-02
7.300000000000004263256414560601115226745605468750e-01,1.918007469088336275353512405672518070787191390991e-02,-1.966818675044341296898053883523971308022737503052e-02,1.000000000000000020816681711721685132943093776703e-02
7.400000000000004352074256530613638460636138916016e-01,1.916622328436869832080091669013199862092733383179e-02,-1.966648406428377071630819727943162433803081512451e-02,1.000000000000000020816681711721685132943093776703e-02
7.500000000000004440892098500626161694526672363281e-01,1.915230105758313275399196129455958725884556770325e-02,-1.966485807483920808524935353034379659220576286316e-02,1.000000000000000020816681711721685132943093776703e-02
7.600000000000004529709940470638684928417205810547e-01,1.913830800201260159965066520726395538076758384705e-02,-1.966330878467505843820717359449190553277730941772e-02,1.000000000000000020816681711721685132943093776703e-02
7.700000000000004618527782440651208162307739257812e-01,1.912424410873955066270113434256927575916051864624e-02,-1.966183619677154895133419643116212682798504829407e-02,1.000000000000000020816681711721685132943093776703e-02
7.800000000000004707345624410663731396198272705078e-01,1.911010936844299151760040444969490636140108108521e-02,-1.966044031452366877554815971507196081802248954773e-02,1.000000000000000020816681711721685132943093776703e-02
7.900000000000004796163466380676254630088806152344e-01,1.909590377139855008059576846335403388366103172302e-02,-1.965912114174106495312344122794456779956817626953e-02,1.000000000000000020816681711721685132943093776703e-02
8.000000000000004884981308350688777863979339599609e-01,1.908162730747852905976991166880907258018851280212e-02,-1.965787868264791057870688462116959271952509880066e-02,1.000000000000000020816681711721685132943093776703e-02
8.100000000000004973799150320701301097869873046875e-01,1.906727996615197040508604686692706309258937835693e-02,-1.965671294188276602143972127123561222106218338013e-02,1.000000000000000020816681711721685132943093776703e-02
8.200000000000005062616992290713824331760406494141e-01,1.905286173648474204456171321453439304605126380920e-02,-1.965562392449844708597339604239095933735370635986e-02,1.000000000000000020816681711721685132943093776703e-02
8.300000000000005151434834260726347565650939941406e-01,1.903837260713961768154867115754313999786972999573e-02,-1.965461163596186194846282546677684877067804336548e-02,1.000000000000000020816681711721685132943093776703e-02
8.400000000000005240252676230738870799541473388672e-01,1.902381256637636006145974931769160320982336997986e-02,-1.965367608215386890924136764624563511461019515991e-02,1.000000000000000020816681711721685132943093776703e-02
8.500000000000005329070518200751394033432006835938e-01,1.900918160205182505517740310096996836364269256592e-02,-1.965281726936909598157932066442299401387572288513e-02,1.000000000000000020816681711721685132943093776703e-02
8.600000000000005417888360170763917267322540283203e-01,1.899447970162006921190922525966016110032796859741e-02,-1.965203520431578129712413272045523626729846000671e-02,1.000000000000000020816681711721685132943093776703e-02
8.700000000000005506706202140776440501213073730469e-01,1.897970685213245731204345645437570055946707725525e-02,-1.965132989411558575576499663384311133995652198792e-02,1.000000000000000020816681711721685132943093776703e-02
8.800000000000005595524044110788963735103607177734e-01,1.896486304023778379779230363055830821394920349121e-02,-1.965070134630340220605049239566142205148935317993e-02,1.000000000000000020816681711721685132943093776703e-02
8.900000000000005684341886080801486968994140625000e-01,1.894994825218239767328221034858870552852749824524e-02,-1.965014956882716809505318167339282808825373649597e-02,1.000000000000000020816681711721685132943093776703e-02
