time,u0,u1,tau
0.000000000000000000000000000000000000000000000000e+00,1.999999999999999000799277837359113618731498718262e-02,5.999999999999999777955395074968691915273666381836e-02,1.000000000000000020816681711721685132943093776703e-02
1.000000000000000020816681711721685132943093776703e-02,2.003371415572686303763205728500906843692064285278e-02,6.000491200321612234036550148630340117961168289185e-02,1.000000000000000020816681711721685132943093776703e-02
2.000000000000000041633363423443370265886187553406e-02,2.006766075746732949647288535288680577650666236877e-02,6.001005556894248998967000829907192382961511611938e-02,1.000000000000000020816681711721685132943093776703e-02
2.999999999999999888977697537484345957636833190918e-02,2.010184006735268869014987558330176398158073425293e-02,6.001543075375835589735373787334538064897060394287e-02,1.000000000000000020816681711721685132943093776703e-02
4.000000000000000083266726846886740531772375106812e-02,2.013625234899705726543395201133535010740160942078e-02,6.002103761523049085813141800826997496187686920166e-02,1.000000000000000020816681711721685132943093776703e-02
5.000000000000000277555756156289135105907917022705e-02,2.017089786750266705572798286993929650634527206421e-02,6.002687621191045430624200207603280432522296905518e-02,1.000000000000000020816681711721685132943093776703e-02
6.000000000000000471844785465691529680043458938599e-02,2.020577688946516986545631766603037249296903610229e-02,6.003294660333181181899320222328242380172014236450e-02,1.000000000000000020816681711721685132943093776703e-02
7.000000000000000666133814775093924254179000854492e-02,2.024088968297889368219699690598645247519016265869e-02,6.003924885000728323136698350026563275605440139771e-02,1.000000000000000020816681711721685132943093776703e-02
8.000000000000000166533453693773481063544750213623e-02,2.027623651764211276660176963559933938086032867432e-02,6.004578301342587687283725017550750635564327239990e-02,1.000000000000000020816681711721685132943093776703e-02
8.999999999999999666933092612453037872910499572754e-02,2.031181766456228651729354339749988866969943046570e-02,6.005254915604995441524849297820765059441328048706e-02,1.000000000000000020816681711721685132943093776703e-02
9.999999999999999167332731531132594682276248931885e-02,2.034763339636129486631688223496894352138042449951e-02,6.005954734131226102622491680449456907808780670166e-02,1.000000000000000020816681711721685132943093776703e-02
1.099999999999999866773237044981215149164199829102e-01,2.038368398718064591901288906683475943282246589661e-02,6.006677763361290695032224107308138627558946609497e-02,1.000000000000000020816681711721685132943093776703e-02
1.199999999999999816813200936849170830100774765015e-01,2.041996971268668706334104001598461763933300971985e-02,6.007424009831630745681607663755130488425493240356e-02,1.000000000000000020816681711721685132943093776703e-02
1.299999999999999766853164828717126511037349700928e-01,2.045649085007577791528454724812036147341132164001e-02,6.008193480174805339855126362635928671807050704956e-02,1.000000000000000020816681711721685132943093776703e-02
1.399999999999999855671006798729649744927883148193e-01,2.049324767807947714204352962497068801894783973694e-02,6.008986181119177483189730537560535594820976257324e-02,1.000000000000000020816681711721685132943093776703e-02
1.499999999999999944488848768742172978818416595459e-01,2.053024047696968765186475991413317387923598289490e-02,6.009802119488591443108305156783899292349815368652e-02,1.000000000000000020816681711721685132943093776703e-02
1.600000000000000033306690738754696212708950042725e-01,2.056746952856380872276531590614467859268188476562e-02,6.010641302202046620806186183472163975238800048828e-02,1.000000000000000020816681711721685132943093776703e-02
1.700000000000000122124532708767219446599483489990e-01,2.060493511622986384512756785625242628157138824463e-02,6.011503736273369341569505763800407294183969497681e-02,1.000000000000000020816681711721685132943093776703e-02
1.800000000000000210942374678779742680490016937256e-01,2.064263752489161468650635811172833200544118881226e-02,6.012389428810874930642071944930648896843194961548e-02,1.000000000000000020816681711721685132943093776703e-02
1.900000000000000299760216648792265914380550384521e-01,2.068057704103366117864837292472657281905412673950e-02,6.013298387017029789092248392989858984947204589844e-02,1.000000000000000020816681711721685132943093776703e-02
2.000000000000000388578058618804789148271083831787e-01,2.071875395270653813506456231152697000652551651001e-02,6.014230618188103755228368640928238164633512496948e-02,1.000000000000000020816681711721685132943093776703e-02
2.100000000000000477395900588817312382161617279053e-01,2.075716854953177717413304037563648307695984840393e-02,6.015186129713821078235369554931821767240762710571e-02,1.000000000000000020816681711721685132943093776703e-02
2.200000000000000566213742558829835616052150726318e-01,2.079582112270697558109588953811908140778541564941e-02,6.016164929077005840696301675052382051944732666016e-02,1.000000000000000020816681711721685132943093776703e-02
2.300000000000000655031584528842358849942684173584e-01,2.083471196501084088392730109262629412114620208740e-02,6.017167023853219748330545257886114995926618576050e-02,1.000000000000000020816681711721685132943093776703e-02
2.400000000000000743849426498854882083833217620850e-01,2.087384137080822155141390794597100466489791870117e-02,6.018192421710398531953245537806651555001735687256e-02,1.000000000000000020816681711721685132943093776703e-02
2.500000000000000555111512312578270211815834045410e-01,2.091320963605513075234121345147286774590611457825e-02,6.019241130408480716651453690246853511780500411987e-02,1.000000000000000020816681711721685132943093776703e-02
2.600000000000000643929354282590793445706367492676e-01,2.095281705830374582855135656700440449640154838562e-02,6.020313157799031533734535059920744970440864562988e-02,1.000000000000000020816681711721685132943093776703e-02
2.700000000000000732747196252603316679596900939941e-01,2.099266393670740429855392505942290881648659706116e-02,6.021408511824863363237625435431255027651786804199e-02,1.000000000000000020816681711721685132943093776703e-02
2.800000000000000821565038222615839913487434387207e-01,2.103275057202558598334896089454559842124581336975e-02,6.022527200519647155863012244481069501489400863647e-02,1.000000000000000020816681711721685132943093776703e-02
2.900000000000000910382880192628363147377967834473e-01,2.107307726662887084612130195182544412091374397278e-02,6.023669232007524548810906139806320425122976303101e-02,1.000000000000000020816681711721685132943093776703e-02
3.000000000000000999200722162640886381268501281738e-01,2.111364432450389683193492373902699910104274749756e-02,6.024834614502707491601185552099195774644613265991e-02,1.000000000000000020816681711721685132943093776703e-02
3.100000000000001088018564132653409615159034729004e-01,2.115445205125830036019252133883128408342599868774e-02,6.026023356309079953563312415099062491208314895630e-02,1.000000000000000020816681711721685132943093776703e-02
3.200000000000001176836406102665932849049568176270e-01,2.119550075412563946986033158736972836777567863464e-02,6.027235465819787835206611248395347502082586288452e-02,1.000000000000000020816681711721685132943093776703e-02
3.300000000000001265654248072678456082940101623535e-01,2.123679074197029961745819548468716675415635108948e-02,6.028470951516826797922377068061905447393655776978e-02,1.000000000000000020816681711721685132943093776703e-02
3.400000000000001354472090042690979316830635070801e-01,2.127832232529240988339047646604740293696522712708e-02,6.029729821970625930349640952954359818249940872192e-02,1.000000000000000020816681711721685132943093776703e-02
3.500000000000001443289932012703502550721168518066e-01,2.132009581623271407546660327625431818887591362000e-02,6.031012085839621006400079750164877623319625854492e-02,1.000000000000000020816681711721685132943093776703e-02
3.600000000000001532107773982716025784611701965332e-01,2.136211152857745571020942065842973534017801284790e-02,6.032317751869828437172316171199781820178031921387e-02,1.000000000000000020816681711721685132943093776703e-02
3.700000000000001620925615952728549018502235412598e-01,2.140436977776322483024706855303520569577813148499e-02,6.033646828894408120635972636591759510338306427002e-02,1.000000000000000020816681711721685132943093776703e-02
3.800000000000001709743457922741072252392768859863e-01,2.144687088088181869949266911135055124759674072266e-02,6.034999325833224209647553948343556839972734451294e-02,1.000000000000000020816681711721685132943093776703e-02
3.900000000000001798561299892753595486283302307129e-01,2.148961515668507474274839808003889629617333412170e-02,6.036375251692399634961816445866134017705917358398e-02,1.000000000000000020816681711721685132943093776703e-02
4.000000000000001887379141862766118720173835754395e-01,2.153260292558968266862784446402656612917780876160e-02,6.037774615563863689349233254688442684710025787354e-02,1.000000000000000020816681711721685132943093776703e-02
4.100000000000001976196983832778641954064369201660e-01,2.157583450968200700081922605022555217146873474121e-02,6.039197426624894060598336409384501166641712188721e-02,1.000000000000000020816681711721685132943093776703e-02
4.200000000000002065014825802791165187954902648926e-01,2.161931023272287838432603734872827772051095962524e-02,6.040643694137656088960497413609118666499853134155e-02,1.000000000000000020816681711721685132943093776703e-02
4.300000000000002153832667772803688421845436096191e-01,2.166303042015237101391988971954560838639736175537e-02,6.042113427448732310143242330013890750706195831299e-02,1.000000000000000020816681711721685132943093776703e-02
4.400000000000002242650509742816211655735969543457e-01,2.170699539909458006259335149934486253187060356140e-02,6.043606635988647141077834135103330481797456741333e-02,1.000000000000000020816681711721685132943093776703e-02
4.500000000000002331468351712828734889626502990723e-01,2.175120549836238523222498031373106641694903373718e-02,6.045123329271387402350512729753972962498664855957e-02,1.000000000000000020816681711721685132943093776703e-02
4.600000000000002420286193682841258123517036437988e-01,2.179566104846219001811569171422888757660984992981e-02,6.046663516893916595629221433227939996868371963501e-02,1.000000000000000020816681711721685132943093776703e-02
4.700000000000002509104035652853781357407569885254e-01,2.184036238159865056518427195442200172692537307739e-02,6.048227208535680854417648788512451574206352233887e-02,1.000000000000000020816681711721685132943093776703e-02
4.800000000000002597921877622866304591298103332520e-01,2.188530983167940452416289076609245967119932174683e-02,6.049814413958111425362318414045148529112339019775e-02,1.000000000000000020816681711721685132943093776703e-02
4.900000000000002686739719592878827825188636779785e-01,2.193050373431978256055785436728911008685827255249e-02,6.051425143004120210665774948211037553846836090088e-02,1.000000000000000020816681711721685132943093776703e-02
5.000000000000002220446049250313080847263336181641e-01,2.197594442684749210803474284148251172155141830444e-02,6.053059405597589065495256477333896327763795852661e-02,1.000000000000000020816681711721685132943093776703e-02
5.100000000000002309263891220325604081153869628906e-01,2.202163224830731499959135533117660088464617729187e-02,6.054717211742853544276243837884976528584957122803e-02,1.000000000000000020816681711721685132943093776703e-02
5.200000000000002398081733190338127315044403076172e-01,2.206756753946576346536723178815009305253624916077e-02,6.056398571524181095870886792909004725515842437744e-02,1.000000000000000020816681711721685132943093776703e-02
5.300000000000002486899575160350650548934936523438e-01,2.211375064281575694713488644538301741704344749451e-02,6.058103495105239544304964738330454565584659576416e-02,1.000000000000000020816681711721685132943093776703e-02
5.400000000000002575717417130363173782825469970703e-01,2.216018190258124687108676198477041907608509063721e-02,6.059831992728564181716066627814143430441617965698e-02,1.000000000000000020816681711721685132943093776703e-02
5.500000000000002664535259100375697016716003417969e-01,2.220686166472187264564475128736376063898205757141e-02,6.061584074715015146850305427506100386381149291992e-02,1.000000000000000020816681711721685132943093776703e-02
5.600000000000002753353101070388220250606536865234e-01,2.225379027693757255645934378662786912173032760620e-02,6.063359751463231334112080617160245310515165328979e-02,1.000000000000000020816681711721685132943093776703e-02
5.700000000000002842170943040400743484497070312500e-01,2.230096808867318772251486791446950519457459449768e-02,6.065159033449073200383594439699663780629634857178e-02,1.000000000000000020816681711721685132943093776703e-02
5.800000000000002930988785010413266718387603759766e-01,2.234839545112307299112863745449431007727980613708e-02,6.066981931225065571844368150777881965041160583496e-02,1.000000000000000020816681711721685132943093776703e-02
5.900000000000003019806626980425789952278137207031e-01,2.239607271723567313848057835912186419591307640076e-02,6.068828455419828654671121626051899511367082595825e-02,1.000000000000000020816681711721685132943093776703e-02
6.000000000000003108624468950438313186168670654297e-01,2.244400024171809560069590361308655701577663421631e-02,6.070698616737504188511920233395358081907033920288e-02,1.000000000000000020816681711721685132943093776703e-02
6.100000000000003197442310920450836420059204101562e-01,2.249217838104067973548083614332426805049180984497e-02,6.072592425957176742734588970051845535635948181152e-02,1.000000000000000020816681711721685132943093776703e-02
6.200000000000003286260152890463359653949737548828e-01,2.254060749344153138928881219271715963259339332581e-02,6.074509893932285992113051520391309168189764022827e-02,1.000000000000000020816681711721685132943093776703e-02
6.300000000000003375077994860475882887840270996094e-01,2.258928793893107481172144446190941380336880683899e-02,6.076451031590034135287936578606604598462581634521e-02,1.000000000000000020816681711721685132943093776703e-02
6.400000000000003463895836830488406121730804443359e-01,2.263822007929656293656606180775270331650972366333e-02,6.078415849930785680443889873458829242736101150513e-02,1.000000000000000020816681711721685132943093776703e-02
6.500000000000003552713678800500929355621337890625e-01,2.268740427810660154062105675620841793715953826904e-02,6.080404360027460292092982285794278141111135482788e-02,1.000000000000000020816681711721685132943093776703e-02
6.600000000000003641531520770513452589511871337891e-01,2.273684090071563870805171347910800250247120857239e-02,6.082416573024920086742994840278697665780782699585e-02,1.000000000000000020816681711721685132943093776703e-02
6.700000000000003730349362740525975823402404785156e-01,2.278653031426846123363993967814167262986302375793e-02,6.084452500139347908003628617734648287296295166016e-02,1.000000000000000020816681711721685132943093776703e-02
6.800000000000003819167204710538499057292938232422e-01,2.283647288770466673990533479354780865833163261414e-02,6.086512152657621438356372323141840752214193344116e-02,1.000000000000000020816681711721685132943093776703e-02
6.900000000000003907985046680551022291183471679688e-01,2.288666899176312885533235430557397194206714630127e-02,6.088595541936678984251685164963419083505868911743e-02,1.000000000000000020816681711721685132943093776703e-02
7.000000000000003996802888650563545525074005126953e-01,2.293711899898644157591576231425278820097446441650e-02,6.090702679402876934533495045798190403729677200317e-02,1.000000000000000020816681711721685132943093776703e-02
7.100000000000004085620730620576068758964538574219e-01,2.298782328372537056559998802640620851889252662659e-02,6.092833576551344443306135190141503699123859405518e-02,1.000000000000000020816681711721685132943093776703e-02
7.200000000000004174438572590588591992855072021484e-01,2.303878222214327323169591466012207092717289924622e-02,6.094988244945324928902863348412211053073406219482e-02,1.000000000000000020816681711721685132943093776703e-02
7.300000000000004263256414560601115226745605468750e-01,2.308999619222051533085071639561647316440939903259e-02,6.097166696215515491186209828811115585267543792725e-02,1.000000000000000020816681711721685132943093776703e-02
7.400000000000004352074256530613638460636138916016e-01,2.314146557375887369722988751163939014077186584473e-02,6.099368942059398696065031231228203978389501571655e-02,1.000000000000000020816681711721685132943093776703e-02
7.500000000000004440892098500626161694526672363281e-01,2.319319074838593203180536761465191375464200973511e-02,6.101594994240562563891927538861637003719806671143e-02,1.000000000000000020816681711721685132943093776703e-02
7.600000000000004529709940470638684928417205810547e-01,2.324517209955945240551500319270417094230651855469e-02,6.103844864588019863971268819113902281969785690308e-02,1.000000000000000020816681711721685132943093776703e-02
7.700000000000004618527782440651208162307739257812e-01,2.329741001257174676242200916931324172765016555786e-02,6.106118564995514919058194891476887278258800506592e-02,1.000000000000000020816681711721685132943093776703e-02
7.800000000000004707345624410663731396198272705078e-01,2.334990487455403454508662264288432197645306587219e-02,6.108416107420825552631882260357087943702936172485e-02,1.000000000000000020816681711721685132943093776703e-02
7.900000000000004796163466380676254630088806152344e-01,2.340265707448077603380909295083256438374519348145e-02,6.110737503885056709496126359226764179766178131104e-02,1.000000000000000020816681711721685132943093776703e-02
8.000000000000004884981308350688777863979339599609e-01,2.345566700317401609421352759454748593270778656006e-02,6.113082766471927831375410278269555419683456420898e-02,1.000000000000000020816681711721685132943093776703e-02
8.100000000000004973799150320701301097869873046875e-01,2.350893505330769323036221862821548711508512496948e-02,6.115451907327051211948898412629205267876386642456e-02,1.000000000000000020816681711721685132943093776703e-02
8.200000000000005062616992290713824331760406494141e-01,2.356246161941194863786996904764237115159630775452e-02,6.117844938657203412990526203429908491671085357666e-02,1.000000000000000020816681711721685132943093776703e-02
8.300000000000005151434834260726347565650939941406e-01,2.361624709787741790978365941100491909310221672058e-02,6.120261872729587659947014799399767071008682250977e-02,1.000000000000000020816681711721685132943093776703e-02
8.400000000000005240252676230738870799541473388672e-01,2.367029188695951927301486250598827609792351722717e-02,6.122702721871092768068933764880057424306869506836e-02,1.000000000000000020816681711721685132943093776703e-02
8.500000000000005329070518200751394033432006835938e-01,2.372459638678271753864379434162401594221591949463e-02,6.125167498467538884643346364100580103695392608643e-02,1.000000000000000020816681711721685132943093776703e-02
8.600000000000005417888360170763917267322540283203e-01,2.377916099934478805222326514012820553034543991089e-02,6.127656214962919761779502891840820666402578353882e-02,1.000000000000000020816681711721685132943093776703e-02
8.700000000000005506706202140776440501213073730469e-01,2.383398612852105635795396665344014763832092285156e-02,6.130168883858633926964287752525706309825181961060e-02,1.000000000000000020816681711721685132943093776703e-02
8.800000000000005595524044110788963735103607177734e-01,2.388907218006863439341280752614693483337759971619e-02,6.132705517712710996391933804261498153209686279297e-02,1.000000000000000020816681711721685132943093776703e-02
8.900000000000005684341886080801486968994140625000e-01,2.394441956163063933704648889033705927431583404541e-02,6.135266129139027579952880842029117047786712646484e-02,1.000000000000000020816681711721685132943093776703e-02
