time,u0,u1,tau
0.000000000000000000000000000000000000000000000000e+00,-1.000000000000000888178419700125232338905334472656e-02,-6.000000000000000471844785465691529680043458938599e-02,1.000000000000000020816681711721685132943093776703e-02
1.000000000000000020816681711721685132943093776703e-02,-1.003299331286640859450809415420735604129731655121e-02,-6.000263216572730706754867924246354959905147552490e-02,1.000000000000000020816681711721685132943093776703e-02
2.000000000000000041633363423443370265886187553406e-02,-1.006621543485275264984135645818241755478084087372e-02,-6.000549726747782253166718646752997301518917083740e-02,1.000000000000000020816681711721685132943093776703e-02
2.999999999999999888977697537484345957636833190918e-02,-1.009966659712490180678123863344808341935276985168e-02,-6.000859536696658697030315465781313832849264144897e-02,1.000000000000000020816681711721685132943093776703e-02
4.000000000000000083266726846886740531772375106812e-02,-1.013334703228600461311081915027898503467440605164e-02,-6.001192652698998653004736070215585641562938690186e-02,1.000000000000000020816681711721685132943093776703e-02
5.000000000000000277555756156289135105907917022705e-02,-1.016725697438176229114858983848534990102052688599e-02,-6.001549081142407843225683450327778700739145278931e-02,1.000000000000000020816681711721685132943093776703e-02
6.000000000000000471844785465691529680043458938599e-02,-1.020139665890566760264590584483812563121318817139e-02,-6.001928828522291176073011342850804794579744338989e-02,1.000000000000000020816681711721685132943093776703e-02
7.000000000000000666133814775093924254179000854492e-02,-1.023576632280423157062010375284444307908415794373e-02,-6.002331901441675110486784205932053737342357635498e-02,1.000000000000000020816681711721685132943093776703e-02
8.000000000000000166533453693773481063544750213623e-02,-1.027036620448220152757023981848760740831494331360e-02,-6.002758306611030020283337194086925592273473739624e-02,1.000000000000000020816681711721685132943093776703e-02
8.999999999999999666933092612453037872910499572754e-02,-1.030519654380775487756416453066776739433407783508e-02,-6.003208050848087007356213007369660772383213043213e-02,1.000000000000000020816681711721685132943093776703e-02
9.999999999999999167332731531132594682276248931885e-02,-1.034025758211768765415516924122130149044096469879e-02,-6.003681141077649163761975614761468023061752319336e-02,1.000000000000000020816681711721685132943093776703e-02
1.099999999999999866773237044981215149164199829102e-01,-1.037554956222258573106387302686925977468490600586e-02,-6.004177584331402833806023977558652404695749282837e-02,1.000000000000000020816681711721685132943093776703e-02
1.199999999999999816813200936849170830100774765015e-01,-1.041107272841197695090187380628776736557483673096e-02,-6.004697387747719855566330693363852333277463912964e-02,1.000000000000000020816681711721685132943093776703e-02
1.299999999999999766853164828717126511037349700928e-01,-1.044682732645947804972497152675714460201561450958e-02,-6.005240558571459108527790249354438856244087219238e-02,1.000000000000000020816681711721685132943093776703e-02
1.399999999999999855671006798729649744927883148193e-01,-1.048281360362792076490467962912589428015053272247e-02,-6.005807104153761816212053759045375045388936996460e-02,1.000000000000000020816681711721685132943093776703e-02
1.499999999999999944488848768742172978818416595459e-01,-1.051903180867446579993540467512502800673246383667e-02,-6.006397031951844073249802136160724330693483352661e-02,1.000000000000000020816681711721685132943093776703e-02
1.600000000000000033306690738754696212708950042725e-01,-1.055548219185570291145381816022563725709915161133e-02,-6.007010349528783127448505751999618951231241226196e-02,1.000000000000000020816681711721685132943093776703e-02
1.700000000000000122124532708767219446599483489990e-01,-1.059216500493274058791737246565389796160161495209e-02,-6.007647064553302274081403311356552876532077789307e-02,1.000000000000000020816681711721685132943093776703e-02
1.800000000000000210942374678779742680490016937256e-01,-1.062908050117627491160110508872094214893877506256e-02,-6.008307184799548117393186430490459315478801727295e-02,1.000000000000000020816681711721685132943093776703e-02
1.900000000000000299760216648792265914380550384521e-01,-1.066622893537165148170053896592435194179415702820e-02,-6.008990718146867138216293824370950460433959960938e-02,1.000000000000000020816681711721685132943093776703e-02
2.000000000000000388578058618804789148271083831787e-01,-1.070361056382391345964677498159289825707674026489e-02,-6.009697672579573241025130414527666289359331130981e-02,1.000000000000000020816681711721685132943093776703e-02
2.100000000000000477395900588817312382161617279053e-01,-1.074122564436282879773987275484614656306803226471e-02,-6.010428056186715994879676827622461132705211639404e-02,1.000000000000000020816681711721685132943093776703e-02
2.200000000000000566213742558829835616052150726318e-01,-1.077907443634791746778223142655406263656914234161e-02,-6.011181877161839853807023814624699298292398452759e-02,1.000000000000000020816681711721685132943093776703e-02
2.300000000000000655031584528842358849942684173584e-01,-1.081715720067344919941287884057601331733167171478e-02,-6.011959143802742683293516279263712931424379348755e-02,1.000000000000000020816681711721685132943093776703e-02
2.400000000000000743849426498854882083833217620850e-01,-1.085547419977344295316523670180686167441308498383e-02,-6.012759864511227347882993399252882227301597595215e-02,1.000000000000000020816681711721685132943093776703e-02
2.500000000000000555111512312578270211815834045410e-01,-1.089402569762664210739622205892374040558934211731e-02,-6.013584047792849135438686403176689054816961288452e-02,1.000000000000000020816681711721685132943093776703e-02
2.600000000000000643929354282590793445706367492676e-01,-1.093281195976148791049187281032573082484304904938e-02,-6.014431702256659018068774003040743991732597351074e-02,1.000000000000000020816681711721685132943093776703e-02
2.700000000000000732747196252603316679596900939941e-01,-1.097183325326106691222083355796712567098438739777e-02,-6.015302836614943443604985873207624536007642745972e-02,1.000000000000000020816681711721685132943093776703e-02
2.800000000000000821565038222615839913487434387207e-01,-1.101108984676805492564088950757650309242308139801e-02,-6.016197459682957188187302222104335669428110122681e-02,1.000000000000000020816681711721685132943093776703e-02
2.900000000000000910382880192628363147377967834473e-01,-1.105058201048964711121769255441904533654451370239e-02,-6.017115580378653433291091801038419362157583236694e-02,1.000000000000000020816681711721685132943093776703e-02
3.000000000000000999200722162640886381268501281738e-01,-1.109031001620247244843220357779500773176550865173e-02,-6.018057207722406903860346005785686429589986801147e-02,1.000000000000000020816681711721685132943093776703e-02
3.100000000000001088018564132653409615159034729004e-01,-1.113027413725749606432380289788852678611874580383e-02,-6.019022350836735618662132196732272859662771224976e-02,1.000000000000000020816681711721685132943093776703e-02
3.200000000000001176836406102665932849049568176270e-01,-1.117047464858491288841602084858095622621476650238e-02,-6.020011018946015701747143111788318492472171783447e-02,1.000000000000000020816681711721685132943093776703e-02
3.300000000000001265654248072678456082940101623535e-01,-1.121091182669902569513098455900035332888364791870e-02,-6.021023221376190642795123153518943581730127334595e-02,1.000000000000000020816681711721685132943093776703e-02
3.400000000000001354472090042690979316830635070801e-01,-1.125158594970310753369258094380711554549634456635e-02,-6.022058967554479169681513894829549826681613922119e-02,1.000000000000000020816681711721685132943093776703e-02
3.500000000000001443289932012703502550721168518066e-01,-1.129249729729425895385919176305833389051258563995e-02,-6.023118267009073406592634114531392697244882583618e-02,1.000000000000000020816681711721685132943093776703e-02
3.600000000000001532107773982716025784611701965332e-01,-1.133364615076824961914514489080829662270843982697e-02,-6.024201129368837032140859832907153759151697158813e-02,1.000000000000000020816681711721685132943093776703e-02
3.700000000000001620925615952728549018502235412598e-01,-1.137503279302434604225435776925223763100802898407e-02,-6.025307564362994416917729267879622057080268859863e-02,1.000000000000000020816681711721685132943093776703e-02
3.800000000000001709743457922741072252392768859863e-01,-1.141665750857013064689660097883461276069283485413e-02,-6.026437581820817679378876619011862203478813171387e-02,1.000000000000000020816681711721685132943093776703e-02
3.900000000000001798561299892753595486283302307129e-01,-1.145852058352630521709247801709352643229067325592e-02,-6.027591191671308190613842725724680349230766296387e-02,1.000000000000000020816681711721685132943093776703e-02
4.000000000000001887379141862766118720173835754395e-01,-1.150062230563148740758450117027678061276674270630e-02,-6.028768403942871834111372209008550271391868591309e-02,1.000000000000000020816681711721685132943093776703e-02
4.100000000000001976196983832778641954064369201660e-01,-1.154296296424698817228993164007988525554537773132e-02,-6.029969228762989408298977878075675107538700103760e-02,1.000000000000000020816681711721685132943093776703e-02
4.200000000000002065014825802791165187954902648926e-01,-1.158554285036158572330666771676987991668283939362e-02,-6.031193676357884947414333964843535795807838439941e-02,1.000000000000000020816681711721685132943093776703e-02
4.300000000000002153832667772803688421845436096191e-01,-1.162836225659628040796089720743111683987081050873e-02,-6.032441757052183634035813497575873043388128280640e-02,1.000000000000000020816681711721685132943093776703e-02
4.400000000000002242650509742816211655735969543457e-01,-1.167142147720904438168432193378976080566644668579e-02,-6.033713481268569711613025674523669295012950897217e-02,1.000000000000000020816681711721685132943093776703e-02
4.500000000000002331468351712828734889626502990723e-01,-1.171472080809955219893314648516025044955313205719e-02,-6.035008859527435376435278158169239759445190429688e-02,1.000000000000000020816681711721685132943093776703e-02
4.600000000000002420286193682841258123517036437988e-01,-1.175826054681390619993663904097047634422779083252e-02,-6.036327902446528281821258588024647906422615051270e-02,1.000000000000000020816681711721685132943093776703e-02
4.700000000000002509104035652853781357407569885254e-01,-1.180204099254934975438136035563729819841682910919e-02,-6.037670620740588633967860232587554492056369781494e-02,1.000000000000000020816681711721685132943093776703e-02
4.800000000000002597921877622866304591298103332520e-01,-1.184606244615896489258410895217821234837174415588e-02,-6.039037025220986287799007641297066584229469299316e-02,1.000000000000000020816681711721685132943093776703e-02
4.900000000000002686739719592878827825188636779785e-01,-1.189032521015636473249443838540173601359128952026e-02,-6.040427126795348822252407217092695645987987518311e-02,1.000000000000000020816681711721685132943093776703e-02
5.000000000000002220446049250313080847263336181641e-01,-1.193482958872036509001546278341265860944986343384e-02,-6.041840936467186840008736226081964559853076934814e-02,1.000000000000000020816681711721685132943093776703e-02
5.100000000000002309263891220325604081153869628906e-01,-1.197957588769965608932466238911729305982589721680e-02,-6.043278465335510940548147118533961474895477294922e-02,1.000000000000000020816681711721685132943093776703e-02
5.200000000000002398081733190338127315044403076172e-01,-1.202456441461745642595992933365778299048542976379e-02,-6.044739724594446611538600677704380359500646591187e-02,1.000000000000000020816681711721685132943093776703e-02
5.300000000000002486899575160350650548934936523438e-01,-1.206979547867615722156475754900384345091879367828e-02,-6.046224725532841487440904870709346141666173934937e-02,1.000000000000000020816681711721685132943093776703e-02
5.400000000000002575717417130363173782825469970703e-01,-1.211526939076195373556910084289484075270593166351e-02,-6.047733479533867750888020964339375495910644531250e-02,1.000000000000000020816681711721685132943093776703e-02
5.500000000000002664535259100375697016716003417969e-01,-1.216098646344946666852937511293930583633482456207e-02,-6.049265998074616901281075342922122217714786529541e-02,1.000000000000000020816681711721685132943093776703e-02
5.600000000000002753353101070388220250606536865234e-01,-1.220694701100635652657455665348606999032199382782e-02,-6.050822292725694523385371326185122597962617874146e-02,1.000000000000000020816681711721685132943093776703e-02
5.700000000000002842170943040400743484497070312500e-01,-1.225315134939792063861752069442445645108819007874e-02,-6.052402375150801872027983563384623266756534576416e-02,1.000000000000000020816681711721685132943093776703e-02
5.800000000000002930988785010413266718387603759766e-01,-1.229959979629168323467247603275609435513615608215e-02,-6.054006257106319538463523599602922331541776657104e-02,1.000000000000000020816681711721685132943093776703e-02
5.900000000000003019806626980425789952278137207031e-01,-1.234629267106197338110806782651707180775701999664e-02,-6.055633950440877932841488018311792984604835510254e-02,1.000000000000000020816681711721685132943093776703e-02
6.000000000000003108624468950438313186168670654297e-01,-1.239323029479449424228310050466461689211428165436e-02,-6.057285467094928460562996974658744875341653823853e-02,1.000000000000000020816681711721685132943093776703e-02
6.100000000000003197442310920450836420059204101562e-01,-1.244041299029087499494750090889283455908298492432e-02,-6.058960819100304290296676867910719010978937149048e-02,1.000000000000000020816681711721685132943093776703e-02
6.200000000000003286260152890463359653949737548828e-01,-1.248784108207322274264328143544844351708889007568e-02,-6.060660018579778346436981451006431598216295242310e-02,1.000000000000000020816681711721685132943093776703e-02
6.300000000000003375077994860475882887840270996094e-01,-1.253551489638865534814726743206847459077835083008e-02,-6.062383077746614362668609032880340237170457839966e-02,1.000000000000000020816681711721685132943093776703e-02
6.400000000000003463895836830488406121730804443359e-01,-1.258343476121382385757296873407540260814130306244e-02,-6.064130008904110302747625382835394702851772308350e-02,1.000000000000000020816681711721685132943093776703e-02
6.500000000000003552713678800500929355621337890625e-01,-1.263160100625943145502549924685808946378529071808e-02,-6.065900824445139005725025072024436667561531066895e-02,1.000000000000000020816681711721685132943093776703e-02
6.600000000000003641531520770513452589511871337891e-01,-1.268001396297473507002173676028178306296467781067e-02,-6.067695536851680504497608126257546246051788330078e-02,1.000000000000000020816681711721685132943093776703e-02
6.700000000000003730349362740525975823402404785156e-01,-1.272867396455203657656962690225554979406297206879e-02,-6.069514158694349487133123943749524187296628952026e-02,1.000000000000000020816681711721685132943093776703e-02
6.800000000000003819167204710538499057292938232422e-01,-1.277758134593116705335358318507132935337722301483e-02,-6.071356702631916513190901696361834183335304260254e-02,1.000000000000000020816681711721685132943093776703e-02
6.900000000000003907985046680551022291183471679688e-01,-1.282673644380396063557903119090042309835553169250e-02,-6.073223181410821597259186432893329765647649765015e-02,1.000000000000000020816681711721685132943093776703e-02
7.000000000000003996802888650563545525074005126953e-01,-1.287613959661871448902914494283322710543870925903e-02,-6.075113607864684323045523228756792377680540084839e-02,1.000000000000000020816681711721685132943093776703e-02
7.100000000000004085620730620576068758964538574219e-01,-1.292579114458464184522767936869058758020401000977e-02,-6.077027994913806324683847037704254034906625747681e-02,1.000000000000000020816681711721685132943093776703e-02
7.200000000000004174438572590588591992855072021484e-01,-1.297569142967631115881399495037840097211301326752e-02,-6.078966355564666135258278245601104572415351867676e-02,1.000000000000000020816681711721685132943093776703e-02
7.300000000000004263256414560601115226745605468750e-01,-1.302584079563808006074765444282093085348606109619e-02,-6.080928702909411953658747052031685598194599151611e-02,1.000000000000000020816681711721685132943093776703e-02
7.400000000000004352074256530613638460636138916016e-01,-1.307623958798851543372521177843736950308084487915e-02,-6.082915050125341921427590818893804680556058883667e-02,1.000000000000000020816681711721685132943093776703e-02
7.500000000000004440892098500626161694526672363281e-01,-1.312688815402480134453266913396873860619962215424e-02,-6.084925410474383705716761028270411770790815353394e-02,1.000000000000000020816681711721685132943093776703e-02
7.600000000000004529709940470638684928417205810547e-01,-1.317778684282714350695098204369060113094747066498e-02,-6.086959797302565061682955160904384683817625045776e-02,1.000000000000000020816681711721685132943093776703e-02
7.700000000000004618527782440651208162307739257812e-01,-1.322893600526315639742680474455482908524572849274e-02,-6.089018224039477455988844667444936931133270263672e-02,1.000000000000000020816681711721685132943093776703e-02
7.800000000000004707345624410663731396198272705078e-01,-1.328033599399224690129628356771718244999647140503e-02,-6.091100704197734833078570204634161200374364852905e-02,1.000000000000000020816681711721685132943093776703e-02
7.900000000000004796163466380676254630088806152344e-01,-1.333198716346998234649756653880103840492665767670e-02,-6.093207251372425442559332964265195187181234359741e-02,1.000000000000000020816681711721685132943093776703e-02
8.000000000000004884981308350688777863979339599609e-01,-1.338388986995244812894245711731855408288538455963e-02,-6.095337879240554646020910922743496485054492950439e-02,1.000000000000000020816681711721685132943093776703e-02
8.100000000000004973799150320701301097869873046875e-01,-1.343604447150060360316459195928473491221666336060e-02,-6.097492601560484948297613527756766416132450103760e-02,1.000000000000000020816681711721685132943093776703e-02
8.200000000000005062616992290713824331760406494141e-01,-1.348845132798461715628590695814637001603841781616e-02,-6.099671432171366314278770914825145155191421508789e-02,1.000000000000000020816681711721685132943093776703e-02
8.300000000000005151434834260726347565650939941406e-01,-1.354111080108819781253615133209677878767251968384e-02,-6.101874384992562322382880779514380265027284622192e-02,1.000000000000000020816681711721685132943093776703e-02
8.400000000000005240252676230738870799541473388672e-01,-1.359402325431291642943154585054799099452793598175e-02,-6.104101474023065909690899388806428760290145874023e-02,1.000000000000000020816681711721685132943093776703e-02
8.500000000000005329070518200751394033432006835938e-01,-1.364718905298251475088910922295326599851250648499e-02,-6.106352713340911647632580638855870347470045089722e-02,1.000000000000000020816681711721685132943093776703e-02
8.600000000000005417888360170763917267322540283203e-01,-1.370060856424720578672360460359413991682231426239e-02,-6.108628117102581078778911205517943017184734344482e-02,1.000000000000000020816681711721685132943093776703e-02
8.700000000000005506706202140776440501213073730469e-01,-1.375428215708796204908015425871781189925968647003e-02,-6.110927699542397645293689834034012164920568466187e-02,1.000000000000000020816681711721685132943093776703e-02
8.800000000000005595524044110788963735103607177734e-01,-1.380821020232080205414337825686743599362671375275e-02,-6.113251474971918841827545065825688652694225311279e-02,1.000000000000000020816681711721685132943093776703e-02
8.900000000000005684341886080801486968994140625000e-01,-1.386239307260105253771786948391309124417603015900e-02,-6.115599457779318653960487495169218163937330245972e-02,1.000000000000000020816681711721685132943093776703e-02
