time,u0,u1,tau
0.000000000000000000000000000000000000000000000000e+00,4.999999999999998889776975374843459576368331909180e-02,7.000000000000000666133814775093924254179000854492e-02,1.000000000000000020816681711721685132943093776703e-02
1.000000000000000020816681711721685132943093776703e-02,5.004885813925608745167394886266265530139207839966e-02,7.000533001568408353332273463820456527173519134521e-02,1.000000000000000020816681711721685132943093776703e-02
2.000000000000000041633363423443370265886187553406e-02,5.009799834152572906020850496133789420127868652344e-02,7.001091633556690008166611960405134595930576324463e-02,1.000000000000000020816681711721685132943093776703e-02
2.999999999999999888977697537484345957636833190918e-02,5.014742102101336224118099949009774718433618545532e-02,7.001675886939807968989413211602368392050266265869e-02,1.000000000000000020816681711721685132943093776703e-02
4.000000000000000083266726846886740531772375106812e-02,5.019712659366241946923281602721544913947582244873e-02,7.002285752736714385946470429189503192901611328125e-02,1.000000000000000020816681711721685132943093776703e-02
5.000000000000000277555756156289135105907917022705e-02,5.024711547716153442477704516022640746086835861206e-02,7.002921222009314550227543350047199055552482604980e-02,1.000000000000000020816681711721685132943093776703e-02
6.000000000000000471844785465691529680043458938599e-02,5.029738809095071760957296191918430849909782409668e-02,7.003582285861430223317114496239810250699520111084e-02,1.000000000000000020816681711721685132943093776703e-02
7.000000000000000666133814775093924254179000854492e-02,5.034794485622746257336146413763344753533601760864e-02,7.004268935437743537342214494856307283043861389160e-02,1.000000000000000020816681711721685132943093776703e-02
8.000000000000000166533453693773481063544750213623e-02,5.039878619595287295718222253526619169861078262329e-02,7.004981161922740895420247397851198911666870117188e-02,1.000000000000000020816681711721685132943093776703e-02
8.999999999999999666933092612453037872910499572754e-02,5.044991253485772014775179172829666640609502792358e-02,7.005718956539641606440227405983023345470428466797e-02,1.000000000000000020816681711721685132943093776703e-02
9.999999999999999167332731531132594682276248931885e-02,5.050132429944850093184172123983444180339574813843e-02,7.006482310549322356507673248415812849998474121094e-02,1.000000000000000020816681711721685132943093776703e-02
1.099999999999999866773237044981215149164199829102e-01,5.055302191801342576171762743797444272786378860474e-02,7.007271215249233353716817873646505177021026611328e-02,1.000000000000000020816681711721685132943093776703e-02
1.199999999999999816813200936849170830100774765015e-01,5.060500582062840702057826547388685867190361022949e-02,7.008085661972300595135010325975599698722362518311e-02,1.000000000000000020816681711721685132943093776703e-02
1.299999999999999766853164828717126511037349700928e-01,5.065727643916301259352508168376516550779342651367e-02,7.008925642085822582671994496195111423730850219727e-02,1.000000000000000020816681711721685132943093776703e-02
1.399999999999999855671006798729649744927883148193e-01,5.070983420728636392738053473294712603092193603516e-02,7.009791146990360100055283965048147365450859069824e-02,1.000000000000000020816681711721685132943093776703e-02
1.499999999999999944488848768742172978818416595459e-01,5.076267956047302715161251285280741285532712936401e-02,7.010682168118613499796509813677403144538402557373e-02,1.000000000000000020816681711721685132943093776703e-02
1.600000000000000033306690738754696212708950042725e-01,5.081581293600886256589532763427996542304754257202e-02,7.011598696934291663485083745399606414139270782471e-02,1.000000000000000020816681711721685132943093776703e-02
1.700000000000000122124532708767219446599483489990e-01,5.086923477299684637209509219246683642268180847168e-02,7.012540724930974023187957300251582637429237365723e-02,1.000000000000000020816681711721685132943093776703e-02
1.800000000000000210942374678779742680490016937256e-01,5.092294551236285771178557979510514996945858001709e-02,7.013508243630957317282792473633890040218830108643e-02,1.000000000000000020816681711721685132943093776703e-02
1.900000000000000299760216648792265914380550384521e-01,5.097694559686142407040065904766379389911890029907e-02,7.014501244584102346291132334954454563558101654053e-02,1.000000000000000020816681711721685132943093776703e-02
2.000000000000000388578058618804789148271083831787e-01,5.103123547108145280359892126398335676640272140503e-02,7.015519719366665463144983050369773991405963897705e-02,1.000000000000000020816681711721685132943093776703e-02
2.100000000000000477395900588817312382161617279053e-01,5.108581558145193490805269220800255425274372100830e-02,7.016563659580118961223149653960717841982841491699e-02,1.000000000000000020816681711721685132943093776703e-02
2.200000000000000566213742558829835616052150726318e-01,5.114068637624757246440410085597250144928693771362e-02,7.017633056849968686830010256016976200044155120850e-02,1.000000000000000020816681711721685132943093776703e-02
2.300000000000000655031584528842358849942684173584e-01,5.119584830559443383579676378758449573069810867310e-02,7.018727902824554998328920873973402194678783416748e-02,1.000000000000000020816681711721685132943093776703e-02
2.400000000000000743849426498854882083833217620850e-01,5.125130182147553947746843050481402315199375152588e-02,7.019848189173848174160497137563652358949184417725e-02,1.000000000000000020816681711721685132943093776703e-02
2.500000000000000555111512312578270211815834045410e-01,5.130704737773641999076801312185125425457954406738e-02,7.020993907588234106409430523854098282754421234131e-02,1.000000000000000020816681711721685132943093776703e-02
2.600000000000000643929354282590793445706367492676e-01,5.136308543009064642159700042611802928149700164795e-02,7.022165049777288892141058340712334029376506805420e-02,1.000000000000000020816681711721685132943093776703e-02
2.700000000000000732747196252603316679596900939941e-01,5.141941643612533280327525631037133280187845230103e-02,7.023361607468545098065249021601630374789237976074e-02,1.000000000000000020816681711721685132943093776703e-02
2.800000000000000821565038222615839913487434387207e-01,5.147604085530660400493729866866488009691238403320e-02,7.024583572406248310748821950255660340189933776855e-02,1.000000000000000020816681711721685132943093776703e-02
2.900000000000000910382880192628363147377967834473e-01,5.153295914898501500767125094171206001192331314087e-02,7.025830936350098421261378689450793899595737457275e-02,1.000000000000000020816681711721685132943093776703e-02
3.000000000000000999200722162640886381268501281738e-01,5.159017178040095630286998584779212251305580139160e-02,7.027103691073992297599914991224068216979503631592e-02,1.000000000000000020816681711721685132943093776703e-02
3.100000000000001088018564132653409615159034729004e-01,5.164767921469002459611274957751447800546884536743e-02,7.028401828364742864874159522514673881232738494873e-02,1.000000000000000020816681711721685132943093776703e-02
3.200000000000001176836406102665932849049568176270e-01,5.170548191888835187768336254521273076534271240234e-02,7.029725340020800961049474153696792200207710266113e-02,1.000000000000000020816681711721685132943093776703e-02
3.300000000000001265654248072678456082940101623535e-01,5.176358036193790673751280451142520178109407424927e-02,7.031074217850954988229261743981624022126197814941e-02,1.000000000000000020816681711721685132943093776703e-02
3.400000000000001354472090042690979316830635070801e-01,5.182197501469175404675837626200518570840358734131e-02,7.032448453673030563937373926819418556988239288330e-02,1.000000000000000020816681711721685132943093776703e-02
3.500000000000001443289932012703502550721168518066e-01,5.188066634991930770048895738000283017754554748535e-02,7.033848039312573519055149517953395843505859375000e-02,1.000000000000000020816681711721685132943093776703e-02
3.600000000000001532107773982716025784611701965332e-01,5.193965484231150703253732103803486097604036331177e-02,7.035272966601525956864549016245291568338871002197e-02,1.000000000000000020816681711721685132943093776703e-02
3.700000000000001620925615952728549018502235412598e-01,5.199894096848599323035244879065430723130702972412e-02,7.036723227376888434303481290044146589934825897217e-02,1.000000000000000020816681711721685132943093776703e-02
3.800000000000001709743457922741072252392768859863e-01,5.205852520699225799427622973780671600252389907837e-02,7.038198813479376592106007137772394344210624694824e-02,1.000000000000000020816681711721685132943093776703e-02
3.900000000000001798561299892753595486283302307129e-01,5.211840803831670893009331280154583510011434555054e-02,7.039699716752061131597173471163841895759105682373e-02,1.000000000000000020816681711721685132943093776703e-02
4.000000000000001887379141862766118720173835754395e-01,5.217858994488776269715657463166280649602413177490e-02,7.041225929039003628151505154164624400436878204346e-02,1.000000000000000020816681711721685132943093776703e-02
4.100000000000001976196983832778641954064369201660e-01,5.223907141108086876757354843903158325701951980591e-02,7.042777442183874303527346683040377683937549591064e-02,1.000000000000000020816681711721685132943093776703e-02
4.200000000000002065014825802791165187954902648926e-01,5.229985292322349849092333329281245823949575424194e-02,7.044354248028568410422423085037735290825366973877e-02,1.000000000000000020816681711721685132943093776703e-02
4.300000000000002153832667772803688421845436096191e-01,5.236093496960012028118569560319883748888969421387e-02,7.045956338411800412568908313915017060935497283936e-02,1.000000000000000020816681711721685132943093776703e-02
4.400000000000002242650509742816211655735969543457e-01,5.242231804045710541473113153188023716211318969727e-02,7.047583705167699552607274426918593235313892364502e-02,1.000000000000000020816681711721685132943093776703e-02
4.500000000000002331468351712828734889626502990723e-01,5.248400262800764770609873721696203574538230895996e-02,7.049236340124381827720867477182764559984207153320e-02,1.000000000000000020816681711721685132943093776703e-02
4.600000000000002420286193682841258123517036437988e-01,5.254598922643659991704723211114469449967145919800e-02,7.050914235102523353049264187575317919254302978516e-02,1.000000000000000020816681711721685132943093776703e-02
4.700000000000002509104035652853781357407569885254e-01,5.260827833190531016560598231990297790616750717163e-02,7.052617381913911520641136121412273496389389038086e-02,1.000000000000000020816681711721685132943093776703e-02
4.800000000000002597921877622866304591298103332520e-01,5.267087044255640282397479268183815293014049530029e-02,7.054345772359993382849552290281280875205993652344e-02,1.000000000000000020816681711721685132943093776703e-02
4.900000000000002686739719592878827825188636779785e-01,5.273376605851853859974198712734505534172058105469e-02,7.056099398230407382381912384516908787190914154053e-02,1.000000000000000020816681711721685132943093776703e-02
5.000000000000002220446049250313080847263336181641e-01,5.279696568191111910595125777945213485509157180786e-02,7.057878251301505367898414533556206151843070983887e-02,1.000000000000000020816681711721685132943093776703e-02
5.100000000000002309263891220325604081153869628906e-01,5.286046981684897755338070624020474497228860855103e-02,7.059682323334866282937838377620209939777851104736e-02,1.000000000000000020816681711721685132943093776703e-02
5.200000000000002398081733190338127315044403076172e-01,5.292427896944702780945846143367816694080829620361e-02,7.061511606075791813719177980601671151816844940186e-02,1.000000000000000020816681711721685132943093776703e-02
5.300000000000002486899575160350650548934936523438e-01,5.298839364782485794602706619116361252963542938232e-02,7.063366091251796485828151617170078679919242858887e-02,1.000000000000000020816681711721685132943093776703e-02
5.400000000000002575717417130363173782825469970703e-01,5.305281436211131684821395992912584915757179260254e-02,7.065245770571082495337122963974252343177795410156e-02,1.000000000000000020816681711721685132943093776703e-02
5.500000000000002664535259100375697016716003417969e-01,5.311754162444905225104463397656218148767948150635e-02,7.067150635721007601031118383616558276116847991943e-02,1.000000000000000020816681711721685132943093776703e-02
5.600000000000002753353101070388220250606536865234e-01,5.318257594899900020379845955176278948783874511719e-02,7.069080678366532199952132486941991373896598815918e-02,1.000000000000000020816681711721685132943093776703e-02
5.700000000000002842170943040400743484497070312500e-01,5.324791785194485371768280401738593354821205139160e-02,7.071035890148665015164652913881582207977771759033e-02,1.000000000000000020816681711721685132943093776703e-02
5.800000000000002930988785010413266718387603759766e-01,5.331356785149748978014372369216289371252059936523e-02,7.073016262682887966839473392610670998692512512207e-02,1.000000000000000020816681711721685132943093776703e-02
5.900000000000003019806626980425789952278137207031e-01,5.337952646789935473581323321923264302313327789307e-02,7.075021787557576880001164454370154999196529388428e-02,1.000000000000000020816681711721685132943093776703e-02
6.000000000000003108624468950438313186168670654297e-01,5.344579422342882885077486321279138792306184768677e-02,7.077052456332404151151393989493953995406627655029e-02,1.000000000000000020816681711721685132943093776703e-02
6.100000000000003197442310920450836420059204101562e-01,5.351237164240451454899627492522995453327894210815e-02,7.079108260536728924883220770425396040081977844238e-02,1.000000000000000020816681711721685132943093776703e-02
6.200000000000003286260152890463359653949737548828e-01,5.357925925118953852654968272872793022543191909790e-02,7.081189191667983107159045630396576598286628723145e-02,1.000000000000000020816681711721685132943093776703e-02
6.300000000000003375077994860475882887840270996094e-01,5.364645757819577059910542971010727342218160629272e-02,7.083295241190033786349289357531233690679073333740e-02,1.000000000000000020816681711721685132943093776703e-02
6.400000000000003463895836830488406121730804443359e-01,5.371396715388804254942556326568592339754104614258e-02,7.085426400531542878713509026056271977722644805908e-02,1.000000000000000020816681711721685132943093776703e-02
6.500000000000003552713678800500929355621337890625e-01,5.378178851078828370813056380939087830483913421631e-02,7.087582661084305957199802605828153900802135467529e-02,1.000000000000000020816681711721685132943093776703e-02
6.600000000000003641531520770513452589511871337891e-01,5.384992218347965653446607348087127320468425750732e-02,7.089764014201586916907871227522264234721660614014e-02,1.000000000000000020816681711721685132943093776703e-02
6.700000000000003730349362740525975823402404785156e-01,5.391836870861065056370620141024119220674037933350e-02,7.091970451196431823870369726137141697108745574951e-02,1.000000000000000020816681711721685132943093776703e-02
6.800000000000003819167204710538499057292938232422e-01,5.398712862489910696561778991053870413452386856079e-02,7.094201963339978600497914840161683969199657440186e-02,1.000000000000000020816681711721685132943093776703e-02
6.900000000000003907985046680551022291183471679688e-01,5.405620247313623616403077676295652054250240325928e-02,7.096458541859744506563600907611544243991374969482e-02,1.000000000000000020816681711721685132943093776703e-02
7.000000000000003996802888650563545525074005126953e-01,5.412559079619056606746951842978887725621461868286e-02,7.098740177937908069072392436282825656235218048096e-02,1.000000000000000020816681711721685132943093776703e-02
7.100000000000004085620730620576068758964538574219e-01,5.419529413901188336089020936015003826469182968140e-02,7.101046862709577134342708859549020417034626007080e-02,1.000000000000000020816681711721685132943093776703e-02
7.200000000000004174438572590588591992855072021484e-01,5.426531304863510540847926222340902313590049743652e-02,7.103378587261037491185078351918491534888744354248e-02,1.000000000000000020816681711721685132943093776703e-02
7.300000000000004263256414560601115226745605468750e-01,5.433564807418413133976997642093920148909091949463e-02,7.105735342627997330744449300254927948117256164551e-02,1.000000000000000020816681711721685132943093776703e-02
7.400000000000004352074256530613638460636138916016e-01,5.440629976687563762460797534004086628556251525879e-02,7.108117119793812277439570834758342243731021881104e-02,1.000000000000000020816681711721685132943093776703e-02
7.500000000000004440892098500626161694526672363281e-01,5.447726868002285283143493188617867417633533477783e-02,7.110523909687700705450907889826339669525623321533e-02,1.000000000000000020816681711721685132943093776703e-02
7.600000000000004529709940470638684928417205810547e-01,5.454855536903924911884544712847855407744646072388e-02,7.112955703182939626305625324675929732620716094971e-02,1.000000000000000020816681711721685132943093776703e-02
7.700000000000004618527782440651208162307739257812e-01,5.462016039144225454382564066690974868834018707275e-02,7.115412491095057800905010481073986738920211791992e-02,1.000000000000000020816681711721685132943093776703e-02
7.800000000000004707345624410663731396198272705078e-01,5.469208430685686128658318239104119129478931427002e-02,7.117894264180003871533841675045550800859928131104e-02,1.000000000000000020816681711721685132943093776703e-02
7.900000000000004796163466380676254630088806152344e-01,5.476432767701922693648342033156950492411851882935e-02,7.120401013132308942754633562799426726996898651123e-02,1.000000000000000020816681711721685132943093776703e-02
8.000000000000004884981308350688777863979339599609e-01,5.483689106578024108351598897570511326193809509277e-02,7.122932728583231121177732347860001027584075927734e-02,1.000000000000000020816681711721685132943093776703e-02
8.100000000000004973799150320701301097869873046875e-01,5.490977503910900864303457069581781979650259017944e-02,7.125489401098888953001164736633654683828353881836e-02,1.000000000000000020816681711721685132943093776703e-02
8.200000000000005062616992290713824331760406494141e-01,5.498298016509632624160275327085400931537151336670e-02,7.128071021178378208205117516627069562673568725586e-02,1.000000000000000020816681711721685132943093776703e-02
8.300000000000005151434834260726347565650939941406e-01,5.505650701395811003058256005715520586818456649780e-02,7.130677579251876174737390101654455065727233886719e-02,1.000000000000000020816681711721685132943093776703e-02
8.400000000000005240252676230738870799541473388672e-01,5.513035615803875411078394108699285425245761871338e-02,7.133309065678732074911039262588019482791423797607e-02,1.000000000000000020816681711721685132943093776703e-02
8.500000000000005329070518200751394033432006835938e-01,5.520452817181447507932645635264634620398283004761e-02,7.135965470745544991792996825097361579537391662598e-02,1.000000000000000020816681711721685132943093776703e-02
8.600000000000005417888360170763917267322540283203e-01,5.527902363189660800424363173988240305334329605103e-02,7.138646784664222366689756427149404771625995635986e-02,1.000000000000000020816681711721685132943093776703e-02
8.700000000000005506706202140776440501213073730469e-01,5.535384311703483301014827588915068190544843673706e-02,7.141352997570030169960375587834278121590614318848e-02,1.000000000000000020816681711721685132943093776703e-02
8.800000000000005595524044110788963735103607177734e-01,5.542898720812038104721608533509424887597560882568e-02,7.144084099519623642926546835951739922165870666504e-02,1.000000000000000020816681711721685132943093776703e-02
8.900000000000005684341886080801486968994140625000e-01,5.550445648818918414901801838823303114622831344604e-02,7.146840080489069713109984149923548102378845214844e-02,1.000000000000000020816681711721685132943093776703e-02
