time,u0,u1,tau
0.000000000000000000000000000000000000000000000000e+00,-4.000000000000000777156117237609578296542167663574e-02,-6.000000000000000471844785465691529680043458938599e-02,1.000000000000000020816681711721685132943093776703e-02
1.000000000000000020816681711721685132943093776703e-02,-4.003659606200438147993736492935568094253540039062e-02,-6.000779152056746196253200764658686239272356033325e-02,1.000000000000000020816681711721685132943093776703e-02
2.000000000000000041633363423443370265886187553406e-02,-4.007343120588772317214321105893759522587060928345e-02,-6.001580891508306869752686907304450869560241699219e-02,1.000000000000000020816681711721685132943093776703e-02
2.999999999999999888977697537484345957636833190918e-02,-4.011050574782531324968815056308812927454710006714e-02,-6.002405219863405499980402169057924766093492507935e-02,1.000000000000000020816681711721685132943093776703e-02
4.000000000000000083266726846886740531772375106812e-02,-4.014782000550770613145346032979432493448257446289e-02,-6.003252138702606238718217923633346799761056900024e-02,1.000000000000000020816681711721685132943093776703e-02
5.000000000000000277555756156289135105907917022705e-02,-4.018537429814566380725793237616016995161771774292e-02,-6.004121649677773148168213879216636996716260910034e-02,1.000000000000000020816681711721685132943093776703e-02
6.000000000000000471844785465691529680043458938599e-02,-4.022316894647508939142355188778310548514127731323e-02,-6.005013754511527579449392533206264488399028778076e-02,1.000000000000000020816681711721685132943093776703e-02
7.000000000000000666133814775093924254179000854492e-02,-4.026120427276191210408384790753189008682966232300e-02,-6.005928454996695836642928156834386754781007766724e-02,1.000000000000000020816681711721685132943093776703e-02
8.000000000000000166533453693773481063544750213623e-02,-4.029948060080700000806785965323797427117824554443e-02,-6.006865752995755453058634998342313338071107864380e-02,1.000000000000000020816681711721685132943093776703e-02
8.999999999999999666933092612453037872910499572754e-02,-4.033799825595100335684506376310309860855340957642e-02,-6.007825650440271059160579625313403084874153137207e-02,1.000000000000000020816681711721685132943093776703e-02
9.999999999999999167332731531132594682276248931885e-02,-4.037675756507921182025810935556364711374044418335e-02,-6.008808149330329556603302876283123623579740524292e-02,1.000000000000000020816681711721685132943093776703e-02
1.099999999999999866773237044981215149164199829102e-01,-4.041575885662639783246774527469824533909559249878e-02,-6.009813251733964190037795560783706605434417724609e-02,1.000000000000000020816681711721685132943093776703e-02
1.199999999999999816813200936849170830100774765015e-01,-4.045500246058161136764041998503671493381261825562e-02,-6.010840959786577231138693377943127416074275970459e-02,1.000000000000000020816681711721685132943093776703e-02
1.299999999999999766853164828717126511037349700928e-01,-4.049448870849297471563588146636902820318937301636e-02,-6.011891275690354335958787146410031709820032119751e-02,1.000000000000000020816681711721685132943093776703e-02
1.399999999999999855671006798729649744927883148193e-01,-4.053421793347247031880087320132588502019643783569e-02,-6.012964201713672657279019517773122061043977737427e-02,1.000000000000000020816681711721685132943093776703e-02
1.499999999999999944488848768742172978818416595459e-01,-4.057419047020068697539940671958902385085821151733e-02,-6.014059740190505487511529736366355791687965393066e-02,1.000000000000000020816681711721685132943093776703e-02
1.600000000000000033306690738754696212708950042725e-01,-4.061440665493156604304303414210153277963399887085e-02,-6.015177893519817881040623319677251856774091720581e-02,1.000000000000000020816681711721685132943093776703e-02
1.700000000000000122124532708767219446599483489990e-01,-4.065486682549711294765160118913627229630947113037e-02,-6.016318664164957419338009003695333376526832580566e-02,1.000000000000000020816681711721685132943093776703e-02
1.800000000000000210942374678779742680490016937256e-01,-4.069557132131210869241400018836429808288812637329e-02,-6.017482054653039424962912562477868050336837768555e-02,1.000000000000000020816681711721685132943093776703e-02
1.900000000000000299760216648792265914380550384521e-01,-4.073652048337877973338549963955301791429519653320e-02,-6.018668067574325930557677111210068687796592712402e-02,1.000000000000000020816681711721685132943093776703e-02
2.000000000000000388578058618804789148271083831787e-01,-4.077771465429146785508507377926434855908155441284e-02,-6.019876705581598402838849892759753856807947158813e-02,1.000000000000000020816681711721685132943093776703e-02
2.100000000000000477395900588817312382161617279053e-01,-4.081915417824129310719882823832449503242969512939e-02,-6.021107971389522833804974766280793119221925735474e-02,1.000000000000000020816681711721685132943093776703e-02
2.200000000000000566213742558829835616052150726318e-01,-4.086083940102075429123829053423833101987838745117e-02,-6.022361867774009974718651960756687913089990615845e-02,1.000000000000000020816681711721685132943093776703e-02
2.300000000000000655031584528842358849942684173584e-01,-4.090277067002835720277431619251728989183902740479e-02,-6.023638397571569325084084312038612551987171173096e-02,1.000000000000000020816681711721685132943093776703e-02
2.400000000000000743849426498854882083833217620850e-01,-4.094494833427320817920147533186536747962236404419e-02,-6.024937563678656876620109983377915341407060623169e-02,1.000000000000000020816681711721685132943093776703e-02
2.500000000000000555111512312578270211815834045410e-01,-4.098737274437956601413901580599485896527767181396e-02,-6.026259369051015224449940888007404282689094543457e-02,1.000000000000000020816681711721685132943093776703e-02
2.600000000000000643929354282590793445706367492676e-01,-4.103004425259142162740744197435560636222362518311e-02,-6.027603816703007433286387595217092894017696380615e-02,1.000000000000000020816681711721685132943093776703e-02
2.700000000000000732747196252603316679596900939941e-01,-4.107296321277701528495995830780884716659784317017e-02,-6.028970909706947434170132282815757207572460174561e-02,1.000000000000000020816681711721685132943093776703e-02
2.800000000000000821565038222615839913487434387207e-01,-4.111612998043336075770781690152944065630435943604e-02,-6.030360651192419318977755438027088530361652374268e-02,1.000000000000000020816681711721685132943093776703e-02
2.900000000000000910382880192628363147377967834473e-01,-4.115954491269074866366395326622296124696731567383e-02,-6.031773044345592471593420214048819616436958312988e-02,1.000000000000000020816681711721685132943093776703e-02
3.000000000000000999200722162640886381268501281738e-01,-4.120320836831722205451100649042928125709295272827e-02,-6.033208092408529760186652879383473191410303115845e-02,1.000000000000000020816681711721685132943093776703e-02
3.100000000000001088018564132653409615159034729004e-01,-4.124712070772303812438153158836939837783575057983e-02,-6.034665798678491566153780922832083888351917266846e-02,1.000000000000000020816681711721685132943093776703e-02
3.200000000000001176836406102665932849049568176270e-01,-4.129128229296511604085040403333550784736871719360e-02,-6.036146166507226629160953734754002653062343597412e-02,1.000000000000000020816681711721685132943093776703e-02
3.300000000000001265654248072678456082940101623535e-01,-4.133569348775145702035160866216756403446197509766e-02,-6.037649199300263586076553679049538914114236831665e-02,1.000000000000000020816681711721685132943093776703e-02
3.400000000000001354472090042690979316830635070801e-01,-4.138035465744555052580722076527308672666549682617e-02,-6.039174900516191407673360913577198516577482223511e-02,1.000000000000000020816681711721685132943093776703e-02
3.500000000000001443289932012703502550721168518066e-01,-4.142526616907076658646857936219021212309598922729e-02,-6.040723273665932896436814303342544008046388626099e-02,1.000000000000000020816681711721685132943093776703e-02
3.600000000000001532107773982716025784611701965332e-01,-4.147042839131472036218184484823723323643207550049e-02,-6.042294322312014021036929989350028336048126220703e-02,1.000000000000000020816681711721685132943093776703e-02
3.700000000000001620925615952728549018502235412598e-01,-4.151584169453362282986574882670538499951362609863e-02,-6.043888050067823536348754487335099838674068450928e-02,1.000000000000000020816681711721685132943093776703e-02
3.800000000000001709743457922741072252392768859863e-01,-4.156150645075662453109544003382325172424316406250e-02,-6.045504460596867746247085051436442881822586059570e-02,1.000000000000000020816681711721685132943093776703e-02
3.900000000000001798561299892753595486283302307129e-01,-4.160742303369011768632290682035090867429971694946e-02,-6.047143557612015551949724567748489789664745330811e-02,1.000000000000000020816681711721685132943093776703e-02
4.000000000000001887379141862766118720173835754395e-01,-4.165359181872202443130959181871730834245681762695e-02,-6.048805344874740724803174884982581716030836105347e-02,1.000000000000000020816681711721685132943093776703e-02
4.100000000000001976196983832778641954064369201660e-01,-4.170001318292608505355900661015766672790050506592e-02,-6.050489826194352382948693502839887514710426330566e-02,1.000000000000000020816681711721685132943093776703e-02
4.200000000000002065014825802791165187954902648926e-01,-4.174668750506611847317373076293733902275562286377e-02,-6.052197005427221304652007916047296021133661270142e-02,1.000000000000000020816681711721685132943093776703e-02
4.300000000000002153832667772803688421845436096191e-01,-4.179361516560023415145508351997705176472663879395e-02,-6.053926886475997914960345269719255156815052032471e-02,1.000000000000000020816681711721685132943093776703e-02
4.400000000000002242650509742816211655735969543457e-01,-4.184079654668508563286621892984840087592601776123e-02,-6.055679473288824027354948498214071150869131088257e-02,1.000000000000000020816681711721685132943093776703e-02
4.500000000000002331468351712828734889626502990723e-01,-4.188823203218005469805618190548557322472333908081e-02,-6.057454769858535564841517384593316819518804550171e-02,1.000000000000000020816681711721685132943093776703e-02
4.600000000000002420286193682841258123517036437988e-01,-4.193592200765142163909615646844031289219856262207e-02,-6.059252780221859729925526494298537727445363998413e-02,1.000000000000000020816681711721685132943093776703e-02
4.700000000000002509104035652853781357407569885254e-01,-4.198386686037654941250352180759364273399114608765e-02,-6.061073508458603847914858420153905171900987625122e-02,1.000000000000000020816681711721685132943093776703e-02
4.800000000000002597921877622866304591298103332520e-01,-4.203206697934801228111467708004056476056575775146e-02,-6.062916958690835189660361947971978224813938140869e-02,1.000000000000000020816681711721685132943093776703e-02
4.900000000000002686739719592878827825188636779785e-01,-4.208052275527772445595786621197476051747798919678e-02,-6.064783135082058018738848659268114715814590454102e-02,1.000000000000000020816681711721685132943093776703e-02
5.000000000000002220446049250313080847263336181641e-01,-4.212923458060104792144429097788815852254629135132e-02,-6.066672041836377454737672110240964684635400772095e-02,1.000000000000000020816681711721685132943093776703e-02
5.100000000000002309263891220325604081153869628906e-01,-4.217820284948087250498360845085699111223220825195e-02,-6.068583683197659173202964666415937244892120361328e-02,1.000000000000000020816681711721685132943093776703e-02
5.200000000000002398081733190338127315044403076172e-01,-4.222742795781168900770552454559947364032268524170e-02,-6.070518063448682166693970430060289800167083740234e-02,1.000000000000000020816681711721685132943093776703e-02
5.300000000000002486899575160350650548934936523438e-01,-4.227691030322362764071186802539159543812274932861e-02,-6.072475186910279015828351134587137494236230850220e-02,1.000000000000000020816681711721685132943093776703e-02
5.400000000000002575717417130363173782825469970703e-01,-4.232665028508649646132866450898291077464818954468e-02,-6.074455057940474772548711257513787131756544113159e-02,1.000000000000000020816681711721685132943093776703e-02
5.500000000000002664535259100375697016716003417969e-01,-4.237664830451378511488869094137044157832860946655e-02,-6.076457680933614047269486491131829097867012023926e-02,1.000000000000000020816681711721685132943093776703e-02
5.600000000000002753353101070388220250606536865234e-01,-4.242690476436665469872622225011582486331462860107e-02,-6.078483060319479769351147524503176100552082061768e-02,1.000000000000000020816681711721685132943093776703e-02
5.700000000000002842170943040400743484497070312500e-01,-4.247742006925789293170225846552057191729545593262e-02,-6.080531200562406396459280699673399794846773147583e-02,1.000000000000000020816681711721685132943093776703e-02
5.800000000000002930988785010413266718387603759766e-01,-4.252819462555589707930536746971483808010816574097e-02,-6.082602106160384797250983979211014229804277420044e-02,1.000000000000000020816681711721685132943093776703e-02
5.900000000000003019806626980425789952278137207031e-01,-4.257922884138856667313177695177728310227394104004e-02,-6.084695781644158113499187834349868353456258773804e-02,1.000000000000000020816681711721685132943093776703e-02
6.000000000000003108624468950438313186168670654297e-01,-4.263052312664723786372888980622519738972187042236e-02,-6.086812231576309295544291444457485340535640716553e-02,1.000000000000000020816681711721685132943093776703e-02
6.100000000000003197442310920450836420059204101562e-01,-4.268207789299056920118147218090598471462726593018e-02,-6.088951460550341698851894989275024272501468658447e-02,1.000000000000000020816681711721685132943093776703e-02
6.200000000000003286260152890463359653949737548828e-01,-4.273389355384840659901612980320351198315620422363e-02,-6.091113473189750660008456861760350875556468963623e-02,1.000000000000000020816681711721685132943093776703e-02
6.300000000000003375077994860475882887840270996094e-01,-4.278597052442564135921188039901608135551214218140e-02,-6.093298274147088827712437364425568375736474990845e-02,1.000000000000000020816681711721685132943093776703e-02
6.400000000000003463895836830488406121730804443359e-01,-4.283830922170603350274120657559251412749290466309e-02,-6.095505868103018309867024981940630823373794555664e-02,1.000000000000000020816681711721685132943093776703e-02
6.500000000000003552713678800500929355621337890625e-01,-4.289091006445602816121720479713985696434974670410e-02,-6.097736259765361432894081872291280888020992279053e-02,1.000000000000000020816681711721685132943093776703e-02
6.600000000000003641531520770513452589511871337891e-01,-4.294377347322853033517731091706082224845886230469e-02,-6.099989453868136235481500762034556828439235687256e-02,1.000000000000000020816681711721685132943093776703e-02
6.700000000000003730349362740525975823402404785156e-01,-4.299689987036670740794264133910473901778459548950e-02,-6.102265455170589880662390669385786168277263641357e-02,1.000000000000000020816681711721685132943093776703e-02
6.800000000000003819167204710538499057292938232422e-01,-4.305028968000770145385658338454959448426961898804e-02,-6.104564268456216802327674031403148546814918518066e-02,1.000000000000000020816681711721685132943093776703e-02
6.900000000000003907985046680551022291183471679688e-01,-4.310394332808637624099290519552596379071474075317e-02,-6.106885898531775463959903049726563040167093276978e-02,1.000000000000000020816681711721685132943093776703e-02
7.000000000000003996802888650563545525074005126953e-01,-4.315786124233902953939434610219905152916908264160e-02,-6.109230350226290545689877831136982422322034835815e-02,1.000000000000000020816681711721685132943093776703e-02
7.100000000000004085620730620576068758964538574219e-01,-4.321204385230707073484168745380884502083063125610e-02,-6.111597628390050274127531793055823072791099548340e-02,1.000000000000000020816681711721685132943093776703e-02
7.200000000000004174438572590588591992855072021484e-01,-4.326649158934069150372891954248188994824886322021e-02,-6.113987737893591956073180426756152883172035217285e-02,1.000000000000000020816681711721685132943093776703e-02
7.300000000000004263256414560601115226745605468750e-01,-4.332120488660251567125669680535793304443359375000e-02,-6.116400683626683348892427716236852575093507766724e-02,1.000000000000000020816681711721685132943093776703e-02
7.400000000000004352074256530613638460636138916016e-01,-4.337618417907120743626236958334629889577627182007e-02,-6.118836470497288071435093570471508428454399108887e-02,1.000000000000000020816681711721685132943093776703e-02
7.500000000000004440892098500626161694526672363281e-01,-4.343142990354510735162563150879577733576297760010e-02,-6.121295103430531014954141255657305009663105010986e-02,1.000000000000000020816681711721685132943093776703e-02
7.600000000000004529709940470638684928417205810547e-01,-4.348694249864577809905341609919560141861438751221e-02,-6.123776587367646406789845059392973780632019042969e-02,1.000000000000000020816681711721685132943093776703e-02
7.700000000000004618527782440651208162307739257812e-01,-4.354272240482158495833431288701831363141536712646e-02,-6.126280927264922404607006001242552883923053741455e-02,1.000000000000000020816681711721685132943093776703e-02
7.800000000000004707345624410663731396198272705078e-01,-4.359877006435124158212346401342074386775493621826e-02,-6.128808128092634588401921291733742691576480865479e-02,1.000000000000000020816681711721685132943093776703e-02
7.900000000000004796163466380676254630088806152344e-01,-4.365508592134730719847013347134634386748075485229e-02,-6.131358194833969044168497930513694882392883300781e-02,1.000000000000000020816681711721685132943093776703e-02
8.000000000000004884981308350688777863979339599609e-01,-4.371167042175971156892089197754103224724531173706e-02,-6.133931132483940590338633569444937165826559066772e-02,1.000000000000000020816681711721685132943093776703e-02
8.100000000000004973799150320701301097869873046875e-01,-4.376852401337919667989595495782850775867700576782e-02,-6.136526946048296432545399170521704945713281631470e-02,1.000000000000000020816681711721685132943093776703e-02
8.200000000000005062616992290713824331760406494141e-01,-4.382564714584080006742894397575582843273878097534e-02,-6.139145640542413573381708147280733101069927215576e-02,1.000000000000000020816681711721685132943093776703e-02
8.300000000000005151434834260726347565650939941406e-01,-4.388304027062726181407370518172683659940958023071e-02,-6.141787220990186507707520036092319060117006301880e-02,1.000000000000000020816681711721685132943093776703e-02
8.400000000000005240252676230738870799541473388672e-01,-4.394070384107245930138674339104909449815750122070e-02,-6.144451692422905897394969088054494932293891906738e-02,1.000000000000000020816681711721685132943093776703e-02
8.500000000000005329070518200751394033432006835938e-01,-4.399863831236475869568280927524028811603784561157e-02,-6.147139059878125449953856218598957639187574386597e-02,1.000000000000000020816681711721685132943093776703e-02
8.600000000000005417888360170763917267322540283203e-01,-4.405684414155041500604781390393327455967664718628e-02,-6.149849328398522552152627440591459162533283233643e-02,1.000000000000000020816681711721685132943093776703e-02
8.700000000000005506706202140776440501213073730469e-01,-4.411532178753688887562489640004059765487909317017e-02,-6.152582503030747107519715655143954791128635406494e-02,1.000000000000000020816681711721685132943093776703e-02
8.800000000000005595524044110788963735103607177734e-01,-4.417407171109617031179439550214738119393587112427e-02,-6.155338588824260659393416972307022660970687866211e-02,1.000000000000000020816681711721685132943093776703e-02
8.900000000000005684341886080801486968994140625000e-01,-4.423309437486809547745991721967584453523159027100e-02,-6.158117590830167187299082343088230118155479431152e-02,1.000000000000000020816681711721685132943093776703e-02
