time,u0,u1,tau
0.000000000000000000000000000000000000000000000000e+00,-7.000000000000000666133814775093924254179000854492e-02,-5.000000000000000277555756156289135105907917022705e-02,1.000000000000000020816681711721685132943093776703e-02
1.000000000000000020816681711721685132943093776703e-02,-7.003489863687674399361782207051874138414859771729e-02,-5.000737270766456021853230140550294890999794006348e-02,1.000000000000000020816681711721685132943093776703e-02
2.000000000000000041633363423443370265886187553406e-02,-7.007000122803404285054540423516300506889820098877e-02,-5.001492081859967159251922907969856169074773788452e-02,1.000000000000000020816681711721685132943093776703e-02
2.999999999999999888977697537484345957636833190918e-02,-7.010530805161215017751175082594272680580615997314e-02,-5.002264425761197147446424082772864494472742080688e-02,1.000000000000000020816681711721685132943093776703e-02
4.000000000000000083266726846886740531772375106812e-02,-7.014081938682716066413291855496936477720737457275e-02,-5.003054294976001098449458481809415388852357864380e-02,1.000000000000000020816681711721685132943093776703e-02
5.000000000000000277555756156289135105907917022705e-02,-7.017653551397277922330175670140306465327739715576e-02,-5.003861682034745073099912815450807102024555206299e-02,1.000000000000000020816681711721685132943093776703e-02
6.000000000000000471844785465691529680043458938599e-02,-7.021245671442204183687607610409031622111797332764e-02,-5.004686579491622600013300825594342313706874847412e-02,1.000000000000000020816681711721685132943093776703e-02
7.000000000000000666133814775093924254179000854492e-02,-7.024858327062900864579120252528809942305088043213e-02,-5.005528979923960786191372562825563363730907440186e-02,1.000000000000000020816681711721685132943093776703e-02
8.000000000000000166533453693773481063544750213623e-02,-7.028491546613042928459691438547451980412006378174e-02,-5.006388875931527121521114054303325247019529342651e-02,1.000000000000000020816681711721685132943093776703e-02
8.999999999999999666933092612453037872910499572754e-02,-7.032145358554742209378218831261619925498962402344e-02,-5.007266260135828650490452673693653196096420288086e-02,1.000000000000000020816681711721685132943093776703e-02
9.999999999999999167332731531132594682276248931885e-02,-7.035819791458704230979748217578162439167499542236e-02,-5.008161125179404898899448994598060380667448043823e-02,1.000000000000000020816681711721685132943093776703e-02
1.099999999999999866773237044981215149164199829102e-01,-7.039514874004389188844044156212476082146167755127e-02,-5.009073463725119412792707862536190077662467956543e-02,1.000000000000000020816681711721685132943093776703e-02
1.199999999999999816813200936849170830100774765015e-01,-7.043230634980168769487818281049840152263641357422e-02,-5.010003268455441582940323996808729134500026702881e-02,1.000000000000000020816681711721685132943093776703e-02
1.299999999999999766853164828717126511037349700928e-01,-7.046967103283480193809396041615400463342666625977e-02,-5.010950532071725693761266029468970373272895812988e-02,1.000000000000000020816681711721685132943093776703e-02
1.399999999999999855671006798729649744927883148193e-01,-7.050724307920976097197041099207126535475254058838e-02,-5.011915247293487196689198981403023935854434967041e-02,1.000000000000000020816681711721685132943093776703e-02
1.499999999999999944488848768742172978818416595459e-01,-7.054502278008671634079718160137417726218700408936e-02,-5.012897406857667881308060486844624392688274383545e-02,1.000000000000000020816681711721685132943093776703e-02
1.600000000000000033306690738754696212708950042725e-01,-7.058301042772094358035417371866060420870780944824e-02,-5.013897003517901740377027408612775616347789764404e-02,1.000000000000000020816681711721685132943093776703e-02
1.700000000000000122124532708767219446599483489990e-01,-7.062120631546420224111670904676429927349090576172e-02,-5.014914030043771814293407373952504713088274002075e-02,1.000000000000000020816681711721685132943093776703e-02
1.800000000000000210942374678779742680490016937256e-01,-7.065961073776620693376315784917096607387065887451e-02,-5.015948479220063566108578356761427130550146102905e-02,1.000000000000000020816681711721685132943093776703e-02
1.900000000000000299760216648792265914380550384521e-01,-7.069822399017594571901668132341001182794570922852e-02,-5.017000343846012011539414743310771882534027099609e-02,1.000000000000000020816681711721685132943093776703e-02
2.000000000000000388578058618804789148271083831787e-01,-7.073704636934305400863820523227332159876823425293e-02,-5.018069616734542603975199881460866890847682952881e-02,1.000000000000000020816681711721685132943093776703e-02
2.100000000000000477395900588817312382161617279053e-01,-7.077607817301911907748035446275025606155395507812e-02,-5.019156290711510731705757848430948797613382339478e-02,1.000000000000000020816681711721685132943093776703e-02
2.200000000000000566213742558829835616052150726318e-01,-7.081531970005895681996577195604913868010044097900e-02,-5.020260358614930806808729357726406306028366088867e-02,1.000000000000000020816681711721685132943093776703e-02
2.300000000000000655031584528842358849942684173584e-01,-7.085477125042191626214105326653225347399711608887e-02,-5.021381813294203272368676493897510226815938949585e-02,1.000000000000000020816681711721685132943093776703e-02
2.400000000000000743849426498854882083833217620850e-01,-7.089443312517307305142821860499680042266845703125e-02,-5.022520647609334670802283540069765876978635787964e-02,1.000000000000000020816681711721685132943093776703e-02
2.500000000000000555111512312578270211815834045410e-01,-7.093430562648443682416399269641260616481304168701e-02,-5.023676854430151467179044288968725595623254776001e-02,1.000000000000000020816681711721685132943093776703e-02
2.600000000000000643929354282590793445706367492676e-01,-7.097438905763613081756346900874632410705089569092e-02,-5.024850426635512484763168572499125730246305465698e-02,1.000000000000000020816681711721685132943093776703e-02
2.700000000000000732747196252603316679596900939941e-01,-7.101468372301757148168377398178563453257083892822e-02,-5.026041357112510238325242539758619386702775955200e-02,1.000000000000000020816681711721685132943093776703e-02
2.800000000000000821565038222615839913487434387207e-01,-7.105518992812853706908526874030940234661102294922e-02,-5.027249638755669491896327372160158120095729827881e-02,1.000000000000000020816681711721685132943093776703e-02
2.900000000000000910382880192628363147377967834473e-01,-7.109590797958029173564398206508485600352287292480e-02,-5.028475264466140959296325263494509272277355194092e-02,1.000000000000000020816681711721685132943093776703e-02
3.000000000000000999200722162640886381268501281738e-01,-7.113683818509664025242500429158098995685577392578e-02,-5.029718227150888759657831883487233426421880722046e-02,1.000000000000000020816681711721685132943093776703e-02
3.100000000000001088018564132653409615159034729004e-01,-7.117798085351495496198026557976845651865005493164e-02,-5.030978519721869546277304152681608684360980987549e-02,1.000000000000000020816681711721685132943093776703e-02
3.200000000000001176836406102665932849049568176270e-01,-7.121933629478718885685850636946270242333412170410e-02,-5.032256135095211635466228017321554943919181823730e-02,1.000000000000000020816681711721685132943093776703e-02
3.300000000000001265654248072678456082940101623535e-01,-7.126090481998084702475182439229683950543403625488e-02,-5.033551066190381645393259191223478410392999649048e-02,1.000000000000000020816681711721685132943093776703e-02
3.400000000000001354472090042690979316830635070801e-01,-7.130268674127993033806660605478100478649139404297e-02,-5.034863305929351828815754288370953872799873352051e-02,1.000000000000000020816681711721685132943093776703e-02
3.500000000000001443289932012703502550721168518066e-01,-7.134468237198585138791884219244820997118949890137e-02,-5.036192847235755609691665313221164979040622711182e-02,1.000000000000000020816681711721685132943093776703e-02
3.600000000000001532107773982716025784611701965332e-01,-7.138689202651833654034163600954343564808368682861e-02,-5.037539683034043813680824541734182275831699371338e-02,1.000000000000000020816681711721685132943093776703e-02
3.700000000000001620925615952728549018502235412598e-01,-7.142931602041624472576586413197219371795654296875e-02,-5.038903806248627714747811978668323718011379241943e-02,1.000000000000000020816681711721685132943093776703e-02
3.800000000000001709743457922741072252392768859863e-01,-7.147195467033845561743987673253286629915237426758e-02,-5.040285209803023469543603596321190707385540008545e-02,1.000000000000000020816681711721685132943093776703e-02
3.900000000000001798561299892753595486283302307129e-01,-7.151480829406460515418331169712473638355731964111e-02,-5.041683886618984061778192540259624365717172622681e-02,1.000000000000000020816681711721685132943093776703e-02
4.000000000000001887379141862766118720173835754395e-01,-7.155787721049589045207994786323979496955871582031e-02,-5.043099829615631940482600725772499572485685348511e-02,1.000000000000000020816681711721685132943093776703e-02
4.100000000000001976196983832778641954064369201660e-01,-7.160116173965579144944371137171401642262935638428e-02,-5.044533031708578474372473010589601472020149230957e-02,1.000000000000000020816681711721685132943093776703e-02
4.200000000000002065014825802791165187954902648926e-01,-7.164466220269080642957248983293538913130760192871e-02,-5.045983485809044793990452149046177510172128677368e-02,1.000000000000000020816681711721685132943093776703e-02
4.300000000000002153832667772803688421845436096191e-01,-7.168837892187107652119948397739790380001068115234e-02,-5.047451184822970143839526713236409705132246017456e-02,1.000000000000000020816681711721685132943093776703e-02
4.400000000000002242650509742816211655735969543457e-01,-7.173231222059109346567140619299607351422309875488e-02,-5.048936121650119540626988623444049153476953506470e-02,1.000000000000000020816681711721685132943093776703e-02
4.500000000000002331468351712828734889626502990723e-01,-7.177646242337026860624860091775190085172653198242e-02,-5.050438289183179635388754036284808535128831863403e-02,1.000000000000000020816681711721685132943093776703e-02
4.600000000000002420286193682841258123517036437988e-01,-7.182082985585351575519297284699860028922557830811e-02,-5.051957680306854575613684232848754618316888809204e-02,1.000000000000000020816681711721685132943093776703e-02
4.700000000000002509104035652853781357407569885254e-01,-7.186541484481186181643153076947783119976520538330e-02,-5.053494287896952152916441036722972057759761810303e-02,1.000000000000000020816681711721685132943093776703e-02
4.800000000000002597921877622866304591298103332520e-01,-7.191021771814289087476623762995586730539798736572e-02,-5.055048104819463011816438324785849545150995254517e-02,1.000000000000000020816681711721685132943093776703e-02
4.900000000000002686739719592878827825188636779785e-01,-7.195523880487131318517413092195056378841400146484e-02,-5.056619123929636389069841584387177135795354843140e-02,1.000000000000000020816681711721685132943093776703e-02
5.000000000000002220446049250313080847263336181641e-01,-7.200047843514935375086594149252050556242465972900e-02,-5.058207338071048914107663563299865927547216415405e-02,1.000000000000000020816681711721685132943093776703e-02
5.100000000000002309263891220325604081153869628906e-01,-7.204593694025722416807155923379468731582164764404e-02,-5.059812740074665082801175230997614562511444091797e-02,1.000000000000000020816681711721685132943093776703e-02
5.200000000000002398081733190338127315044403076172e-01,-7.209161465260351120409865188776166178286075592041e-02,-5.061435322757892874001584004872711375355720520020e-02,1.000000000000000020816681711721685132943093776703e-02
5.300000000000002486899575160350650548934936523438e-01,-7.213751190572553761981566822214517742395401000977e-02,-5.063075078923633814964588850671134423464536666870e-02,1.000000000000000020816681711721685132943093776703e-02
5.400000000000002575717417130363173782825469970703e-01,-7.218362903428969523655922557736630551517009735107e-02,-5.064732001359325413991641084976436104625463485718e-02,1.000000000000000020816681711721685132943093776703e-02
5.500000000000002664535259100375697016716003417969e-01,-7.222996637409175024746588178459205664694309234619e-02,-5.066406082835978735845472442633763421326875686646e-02,1.000000000000000020816681711721685132943093776703e-02
5.600000000000002753353101070388220250606536865234e-01,-7.227652426205709301765267582595697604119777679443e-02,-5.068097316107206262714157674054149538278579711914e-02,1.000000000000000020816681711721685132943093776703e-02
5.700000000000002842170943040400743484497070312500e-01,-7.232330303624098788439766849478473886847496032715e-02,-5.069805693908247673507005970350292045623064041138e-02,1.000000000000000020816681711721685132943093776703e-02
5.800000000000002930988785010413266718387603759766e-01,-7.237030303582876744616925179798272438347339630127e-02,-5.071531208954985908698986918352602515369653701782e-02,1.000000000000000020816681711721685132943093776703e-02
5.900000000000003019806626980425789952278137207031e-01,-7.241752460113602685165545835843659006059169769287e-02,-5.073273853942957684060033329842553939670324325562e-02,1.000000000000000020816681711721685132943093776703e-02
6.000000000000003108624468950438313186168670654297e-01,-7.246496807360873482206642393066431395709514617920e-02,-5.075033621546357759379830554280488286167383193970e-02,1.000000000000000020816681711721685132943093776703e-02
6.100000000000003197442310920450836420059204101562e-01,-7.251263379582333079564904210201348178088665008545e-02,-5.076810504417036962188092275027884170413017272949e-02,1.000000000000000020816681711721685132943093776703e-02
6.200000000000003286260152890463359653949737548828e-01,-7.256052211148682207220161899385857395827770233154e-02,-5.078604495183490497023370835449895821511745452881e-02,1.000000000000000020816681711721685132943093776703e-02
6.300000000000003375077994860475882887840270996094e-01,-7.260863336543678381307387326160096563398838043213e-02,-5.080415586449845560812477174295054282993078231812e-02,1.000000000000000020816681711721685132943093776703e-02
6.400000000000003463895836830488406121730804443359e-01,-7.265696790364140067453035953803919255733489990234e-02,-5.082243770794836468240873728063888847827911376953e-02,1.000000000000000020816681711721685132943093776703e-02
6.500000000000003552713678800500929355621337890625e-01,-7.270552607319941129659923717554192990064620971680e-02,-5.084089040770774919897334598317684140056371688843e-02,1.000000000000000020816681711721685132943093776703e-02
6.600000000000003641531520770513452589511871337891e-01,-7.275430822234002503634542335930746048688888549805e-02,-5.085951388902516800971653765373048372566699981689e-02,1.000000000000000020816681711721685132943093776703e-02
6.700000000000003730349362740525975823402404785156e-01,-7.280331470042288033450716966399340890347957611084e-02,-5.087830807686415796053935878262564074248075485229e-02,1.000000000000000020816681711721685132943093776703e-02
6.800000000000003819167204710538499057292938232422e-01,-7.285254585793785042646675265132216736674308776855e-02,-5.089727289589275616155106263249763287603855133057e-02,1.000000000000000020816681711721685132943093776703e-02
6.900000000000003907985046680551022291183471679688e-01,-7.290200204650489068658458791105658747255802154541e-02,-5.091640827047293899054736243670049589127302169800e-02,1.000000000000000020816681711721685132943093776703e-02
7.000000000000003996802888650563545525074005126953e-01,-7.295168361887384433916992065860540606081485748291e-02,-5.093571412464997089086793380374729167670011520386e-02,1.000000000000000020816681711721685132943093776703e-02
7.100000000000004085620730620576068758964538574219e-01,-7.300159092892419265830028507480164989829063415527e-02,-5.095519038214171153589049367838015314191579818726e-02,1.000000000000000020816681711721685132943093776703e-02
7.200000000000004174438572590588591992855072021484e-01,-7.305172433166480516764096364568104036152362823486e-02,-5.097483696632783278790412850867141969501972198486e-02,1.000000000000000020816681711721685132943093776703e-02
7.300000000000004263256414560601115226745605468750e-01,-7.310208418323357881796198398660635575652122497559e-02,-5.099465380023899402361919896975450683385133743286e-02,1.000000000000000020816681711721685132943093776703e-02
7.400000000000004352074256530613638460636138916016e-01,-7.315267084089713267580634692421881482005119323730e-02,-5.101464080654590643737478217190073337405920028687e-02,1.000000000000000020816681711721685132943093776703e-02
7.500000000000004440892098500626161694526672363281e-01,-7.320348466305041934543140769164892844855785369873e-02,-5.103479790754836264987659433245426043868064880371e-02,1.000000000000000020816681711721685132943093776703e-02
7.600000000000004529709940470638684928417205810547e-01,-7.325452600921628087959902586590033024549484252930e-02,-5.105512502516417611131416265379812102764844894409e-02,1.000000000000000020816681711721685132943093776703e-02
7.700000000000004618527782440651208162307739257812e-01,-7.330579524004503244594133093414711765944957733154e-02,-5.107562208091804417664505422180809546262025833130e-02,1.000000000000000020816681711721685132943093776703e-02
7.800000000000004707345624410663731396198272705078e-01,-7.335729271731393497102402534437715075910091400146e-02,-5.109628899593036954751568146093632094562053680420e-02,1.000000000000000020816681711721685132943093776703e-02
7.900000000000004796163466380676254630088806152344e-01,-7.340901880392669553998530318494886159896850585938e-02,-5.111712569090597763077354898086923640221357345581e-02,1.000000000000000020816681711721685132943093776703e-02
8.000000000000004884981308350688777863979339599609e-01,-7.346097386391288452944792197740753181278705596924e-02,-5.113813208612277144693436525813012849539518356323e-02,1.000000000000000020816681711721685132943093776703e-02
8.100000000000004973799150320701301097869873046875e-01,-7.351315826242733886264346665484481491148471832275e-02,-5.115930810142031714971011524539790116250514984131e-02,1.000000000000000020816681711721685132943093776703e-02
8.200000000000005062616992290713824331760406494141e-01,-7.356557236574952363117319009688799269497394561768e-02,-5.118065365618836015659809390854206867516040802002e-02,1.000000000000000020816681711721685132943093776703e-02
8.300000000000005151434834260726347565650939941406e-01,-7.361821654128283820561762240686221048235893249512e-02,-5.120216866935525107384918896968883927911520004272e-02,1.000000000000000020816681711721685132943093776703e-02
8.400000000000005240252676230738870799541473388672e-01,-7.367109115755392234614618018895271234214305877686e-02,-5.122385305937632998807274020691693294793367385864e-02,1.000000000000000020816681711721685132943093776703e-02
8.500000000000005329070518200751394033432006835938e-01,-7.372419658421190680197554456754005514085292816162e-02,-5.124570674422219279664503233107097912579774856567e-02,1.000000000000000020816681711721685132943093776703e-02
8.600000000000005417888360170763917267322540283203e-01,-7.377753319202758064410119231979479081928730010986e-02,-5.126772964136691590475436441920464858412742614746e-02,1.000000000000000020816681711721685132943093776703e-02
8.700000000000005506706202140776440501213073730469e-01,-7.383110135289261410918015826609916985034942626953e-02,-5.128992166777619765571927246128325350582599639893e-02,1.000000000000000020816681711721685132943093776703e-02
8.800000000000005595524044110788963735103607177734e-01,-7.388490143981865654332352733035804703831672668457e-02,-5.131228273989542343347380892737419344484806060791e-02,1.000000000000000020816681711721685132943093776703e-02
8.900000000000005684341886080801486968994140625000e-01,-7.393893382693642046810111878585303202271461486816e-02,-5.133481277363765443721987935532524716109037399292e-02,1.000000000000000020816681711721685132943093776703e-02
