time,u0,u1,tau
0.000000000000000000000000000000000000000000000000e+00,9.999999999999995003996389186795568093657493591309e-03,2.999999999999999888977697537484345957636833190918e-02,1.000000000000000020816681711721685132943093776703e-02
1.000000000000000020816681711721685132943093776703e-02,1.001325641501528765364703588147676782682538032532e-02,3.000365618842743692384900100478262174874544143677e-02,1.000000000000000020816681711721685132943093776703e-02
2.000000000000000041633363423443370265886187553406e-02,1.002662754222419759508877490361555828712880611420e-02,3.000742948089927739085958080522686941549181938171e-02,1.000000000000000020816681711721685132943093776703e-02
2.999999999999999888977697537484345957636833190918e-02,1.004011347242145593683382287508720764890313148499e-02,3.001131994219825502301368658208957640454173088074e-02,1.000000000000000020816681711721685132943093776703e-02
4.000000000000000083266726846886740531772375106812e-02,1.005371429707728990476933716990970424376428127289e-02,3.001532763772506162691655617891228757798671722412e-02,1.000000000000000020816681711721685132943093776703e-02
5.000000000000000277555756156289135105907917022705e-02,1.006743010833884531540771689606117433868348598480e-02,3.001945263349877629499573572502413298934698104858e-02,1.000000000000000020816681711721685132943093776703e-02
6.000000000000000471844785465691529680043458938599e-02,1.008126099903160037551952399326182785443961620331e-02,3.002369499615728867802921797647286439314484596252e-02,1.000000000000000020816681711721685132943093776703e-02
7.000000000000000666133814775093924254179000854492e-02,1.009520706266077254287250042352752643637359142303e-02,3.002805479295769450209796502804238116368651390076e-02,1.000000000000000020816681711721685132943093776703e-02
8.000000000000000166533453693773481063544750213623e-02,1.010926839341270977445930157045950181782245635986e-02,3.003253209177670149387928688611282268539071083069e-02,1.000000000000000020816681711721685132943093776703e-02
8.999999999999999666933092612453037872910499572754e-02,1.012344508615628004000175366172697977162897586823e-02,3.003712696111099714202374855176458368077874183655e-02,1.000000000000000020816681711721685132943093776703e-02
9.999999999999999167332731531132594682276248931885e-02,1.013773723644424522294382740028595435433089733124e-02,3.004183947007761992797902905749651836231350898743e-02,1.000000000000000020816681711721685132943093776703e-02
1.099999999999999866773237044981215149164199829102e-01,1.015214494051462808255070768836958450265228748322e-02,3.004666968841431320957902073587320046499371528625e-02,1.000000000000000020816681711721685132943093776703e-02
1.199999999999999816813200936849170830100774765015e-01,1.016666829529207227711395944425021298229694366455e-02,3.005161768647985481850426481287286151200532913208e-02,1.000000000000000020816681711721685132943093776703e-02
1.299999999999999766853164828717126511037349700928e-01,1.018130739838919024409236158135172445327043533325e-02,3.005668353525440053553019481569208437576889991760e-02,1.000000000000000020816681711721685132943093776703e-02
1.399999999999999855671006798729649744927883148193e-01,1.019606234810790240663536110332643147557973861694e-02,3.006186730633977552407110067633766448125243186951e-02,1.000000000000000020816681711721685132943093776703e-02
1.499999999999999944488848768742172978818416595459e-01,1.021093324344076423704219536148229963146150112152e-02,3.006716907195979351929970846413198160007596015930e-02,1.000000000000000020816681711721685132943093776703e-02
1.600000000000000033306690738754696212708950042725e-01,1.022592018407228811605058638178888941183686256409e-02,3.007258890496052397556248081400553928688168525696e-02,1.000000000000000020816681711721685132943093776703e-02
1.700000000000000122124532708767219446599483489990e-01,1.024102327038025651850805530784782604314386844635e-02,3.007812687881057656102967712286044843494892120361e-02,1.000000000000000020816681711721685132943093776703e-02
1.800000000000000210942374678779742680490016937256e-01,1.025624260343702305597890500621360843069851398468e-02,3.008378306760135442732284616340621141716837882996e-02,1.000000000000000020816681711721685132943093776703e-02
1.900000000000000299760216648792265914380550384521e-01,1.027157828501079964156339485725766280665993690491e-02,3.008955754604730054024841479076712857931852340698e-02,1.000000000000000020816681711721685132943093776703e-02
2.000000000000000388578058618804789148271083831787e-01,1.028703041756694712416386749964658520184457302094e-02,3.009545038948611972440261297379038296639919281006e-02,1.000000000000000020816681711721685132943093776703e-02
2.100000000000000477395900588817312382161617279053e-01,1.030259910426924510606916385313525097444653511047e-02,3.010146167387901111611725468719669152051210403442e-02,1.000000000000000020816681711721685132943093776703e-02
2.200000000000000566213742558829835616052150726318e-01,1.031828444898115482164513423413154669106006622314e-02,3.010759147581085551359514340674650156870484352112e-02,1.000000000000000020816681711721685132943093776703e-02
2.300000000000000655031584528842358849942684173584e-01,1.033408655626707507713124556403272436000406742096e-02,3.011383987249041313538633346524875378236174583435e-02,1.000000000000000020816681711721685132943093776703e-02
2.400000000000000743849426498854882083833217620850e-01,1.035000553139358951681980869352628360502421855927e-02,3.012020694175049709273572773327032336965203285217e-02,1.000000000000000020816681711721685132943093776703e-02
2.500000000000000555111512312578270211815834045410e-01,1.036604148033070001144739791243409854359924793243e-02,3.012669276204812951469591553177451714873313903809e-02,1.000000000000000020816681711721685132943093776703e-02
2.600000000000000643929354282590793445706367492676e-01,1.038219450975305484241584252913526142947375774384e-02,3.013329741246469767324001054475957062095403671265e-02,1.000000000000000020816681711721685132943093776703e-02
2.700000000000000732747196252603316679596900939941e-01,1.039846472704116474294888661233926541171967983246e-02,3.014002097270607888335192114936944562941789627075e-02,1.000000000000000020816681711721685132943093776703e-02
2.800000000000000821565038222615839913487434387207e-01,1.041485224028261373507842080243790405802428722382e-02,3.014686352310275846422271683877625036984682083130e-02,1.000000000000000020816681711721685132943093776703e-02
2.900000000000000910382880192628363147377967834473e-01,1.043135715827325261939595435478622675873339176178e-02,3.015382514460993729210613878422009292989969253540e-02,1.000000000000000020816681711721685132943093776703e-02
3.000000000000000999200722162640886381268501281738e-01,1.044797959051839419952756315979058854281902313232e-02,3.016090591880762547538630258259217953309416770935e-02,1.000000000000000020816681711721685132943093776703e-02
3.100000000000001088018564132653409615159034729004e-01,1.046471964723398595520365006450447253882884979248e-02,3.016810592790070480462283342149021336808800697327e-02,1.000000000000000020816681711721685132943093776703e-02
3.200000000000001176836406102665932849049568176270e-01,1.048157743934778618477565714783850125968456268311e-02,3.017542525471900161093685710511635988950729370117e-02,1.000000000000000020816681711721685132943093776703e-02
3.300000000000001265654248072678456082940101623535e-01,1.049855307850051933105106627408531494438648223877e-02,3.018286398271732839937442349764751270413398742676e-02,1.000000000000000020816681711721685132943093776703e-02
3.400000000000001354472090042690979316830635070801e-01,1.051564667704703304185187562325154431164264678955e-02,3.019042219597551507392907410576299298554658889771e-02,1.000000000000000020816681711721685132943093776703e-02
3.500000000000001443289932012703502550721168518066e-01,1.053285834805743441389136449970465037040412425995e-02,3.019809997919842628477660184671549359336495399475e-02,1.000000000000000020816681711721685132943093776703e-02
3.600000000000001532107773982716025784611701965332e-01,1.055018820531822623665085814081976423040032386780e-02,3.020589741771596489772200300194526789709925651550e-02,1.000000000000000020816681711721685132943093776703e-02
3.700000000000001620925615952728549018502235412598e-01,1.056763636333342762374520873436267720535397529602e-02,3.021381459748306158585862135623756330460309982300e-02,1.000000000000000020816681711721685132943093776703e-02
3.800000000000001709743457922741072252392768859863e-01,1.058520293732568770539437252864445326849818229675e-02,3.022185160507963666565167670796654419973492622375e-02,1.000000000000000020816681711721685132943093776703e-02
3.900000000000001798561299892753595486283302307129e-01,1.060288804323739064727760705864056944847106933594e-02,3.023000852771057581080960119379597017541527748108e-02,1.000000000000000020816681711721685132943093776703e-02
4.000000000000001887379141862766118720173835754395e-01,1.062069179773174679159986055765330092981457710266e-02,3.023828545320565372445109630916704190894961357117e-02,1.000000000000000020816681711721685132943093776703e-02
4.100000000000001976196983832778641954064369201660e-01,1.063861431819388032871120941535991732962429523468e-02,3.024668247001947515850694969685719115659594535828e-02,1.000000000000000020816681711721685132943093776703e-02
4.200000000000002065014825802791165187954902648926e-01,1.065665572273190309093848782140412367880344390869e-02,3.025519966723138123865233239939698250964283943176e-02,1.000000000000000020816681711721685132943093776703e-02
4.300000000000002153832667772803688421845436096191e-01,1.067481613017798140752301350175912375561892986298e-02,3.026383713454534885034519220425863750278949737549e-02,1.000000000000000020816681711721685132943093776703e-02
4.400000000000002242650509742816211655735969543457e-01,1.069309566008939081649398161744102253578603267670e-02,3.027259496228987267762988722097361460328102111816e-02,1.000000000000000020816681711721685132943093776703e-02
4.500000000000002331468351712828734889626502990723e-01,1.071149443274956210292447877918675658293068408966e-02,3.028147324141782642525910773656505625694990158081e-02,1.000000000000000020816681711721685132943093776703e-02
4.600000000000002420286193682841258123517036437988e-01,1.073001256916911866357011717809655237942934036255e-02,3.029047206350632057136884611736604711040854454041e-02,1.000000000000000020816681711721685132943093776703e-02
4.700000000000002509104035652853781357407569885254e-01,1.074865019108690519789028883224091259762644767761e-02,3.029959152075653930347165498915273929014801979065e-02,1.000000000000000020816681711721685132943093776703e-02
4.800000000000002597921877622866304591298103332520e-01,1.076740742097100078655813604200375266373157501221e-02,3.030883170599354969887428978836396709084510803223e-02,1.000000000000000020816681711721685132943093776703e-02
4.900000000000002686739719592878827825188636779785e-01,1.078628438201973196997052184542553732171654701233e-02,3.031819271266612131343620717416342813521623611450e-02,1.000000000000000020816681711721685132943093776703e-02
5.000000000000002220446049250313080847263336181641e-01,1.080528119816266674479976472866837866604328155518e-02,3.032767463484650413696463999713159864768385887146e-02,1.000000000000000020816681711721685132943093776703e-02
5.100000000000002309263891220325604081153869628906e-01,1.082439799406160682582189735967403976246714591980e-02,3.033727756723020307916272031434345990419387817383e-02,1.000000000000000020816681711721685132943093776703e-02
5.200000000000002398081733190338127315044403076172e-01,1.084363489511156429523364153055808856151998043060e-02,3.034700160513573510834284263637528056278824806213e-02,1.000000000000000020816681711721685132943093776703e-02
5.300000000000002486899575160350650548934936523438e-01,1.086299202744172784362852723916148534044623374939e-02,3.035684684450437598179917131346883252263069152832e-02,1.000000000000000020816681711721685132943093776703e-02
5.400000000000002575717417130363173782825469970703e-01,1.088246951791642727624953579379507573321461677551e-02,3.036681338189987575115758033916790736839175224304e-02,1.000000000000000020816681711721685132943093776703e-02
5.500000000000002664535259100375697016716003417969e-01,1.090206749413608067200698314991313964128494262695e-02,3.037690131450817426772559315395483281463384628296e-02,1.000000000000000020816681711721685132943093776703e-02
5.600000000000002753353101070388220250606536865234e-01,1.092178608443813460360249933955856249667704105377e-02,3.038711074013709587116061072720185620710253715515e-02,1.000000000000000020816681711721685132943093776703e-02
5.700000000000002842170943040400743484497070312500e-01,1.094162541789799047986520008635125122964382171631e-02,3.039744175721601632256252401020901743322610855103e-02,1.000000000000000020816681711721685132943093776703e-02
5.800000000000002930988785010413266718387603759766e-01,1.096158562432993088808785842047655023634433746338e-02,3.040789446479552973756632638924202183261513710022e-02,1.000000000000000020816681711721685132943093776703e-02
5.900000000000003019806626980425789952278137207031e-01,1.098166683428802338495788859518142999149858951569e-02,3.041846896254709470275301441688498016446828842163e-02,1.000000000000000020816681711721685132943093776703e-02
6.000000000000003108624468950438313186168670654297e-01,1.100186917906702602221180598007777007296681404114e-02,3.042916535076265610593182486809382680803537368774e-02,1.000000000000000020816681711721685132943093776703e-02
6.100000000000003197442310920450836420059204101562e-01,1.102219279070327725977840316318179247900843620300e-02,3.043998373035425308863466398179298266768455505371e-02,1.000000000000000020816681711721685132943093776703e-02
6.200000000000003286260152890463359653949737548828e-01,1.104263780197557026641064226168964523822069168091e-02,3.045092420285362005971663279524364043027162551880e-02,1.000000000000000020816681711721685132943093776703e-02
6.300000000000003375077994860475882887840270996094e-01,1.106320434640603242448797516317426925525069236755e-02,3.046198687041175995338093684949853923171758651733e-02,1.000000000000000020816681711721685132943093776703e-02
6.400000000000003463895836830488406121730804443359e-01,1.108389255826097881396652411467584897764027118683e-02,3.047317183579850707886294003401417285203933715820e-02,1.000000000000000020816681711721685132943093776703e-02
6.500000000000003552713678800500929355621337890625e-01,1.110470257255176916577621426540645188651978969574e-02,3.048447920240206568398555475596367614343762397766e-02,1.000000000000000020816681711721685132943093776703e-02
6.600000000000003641531520770513452589511871337891e-01,1.112563452503564052908924253415534622035920619965e-02,3.049590907422853464092682429509295616298913955688e-02,1.000000000000000020816681711721685132943093776703e-02
6.700000000000003730349362740525975823402404785156e-01,1.114668855221654514275897440711560193449258804321e-02,3.050746155590142519309360125134844565764069557190e-02,1.000000000000000020816681711721685132943093776703e-02
6.800000000000003819167204710538499057292938232422e-01,1.116786479134596922480060499083265312947332859039e-02,3.051913675266114747697265840997715713456273078918e-02,1.000000000000000020816681711721685132943093776703e-02
6.900000000000003907985046680551022291183471679688e-01,1.118916338042373961880748822750319959595799446106e-02,3.053093477036448316619399179216998163610696792603e-02,1.000000000000000020816681711721685132943093776703e-02
7.000000000000003996802888650563545525074005126953e-01,1.121058445819882870564399013346701394766569137573e-02,3.054285571548404076835936393763404339551925659180e-02,1.000000000000000020816681711721685132943093776703e-02
7.100000000000004085620730620576068758964538574219e-01,1.123212816417014023318010629282071022316813468933e-02,3.055489969510770745242389523355086566880345344543e-02,1.000000000000000020816681711721685132943093776703e-02
7.200000000000004174438572590588591992855072021484e-01,1.125379463858729514602607935103151248767971992493e-02,3.056706681693805577326727984655008185654878616333e-02,1.000000000000000020816681711721685132943093776703e-02
7.300000000000004263256414560601115226745605468750e-01,1.127558402245139659858530478686589049175381660461e-02,3.057935718929175386571195360829733544960618019104e-02,1.000000000000000020816681711721685132943093776703e-02
7.400000000000004352074256530613638460636138916016e-01,1.129749645751579149866028473070400650613009929657e-02,3.059177092109895482185955017939704703167080879211e-02,1.000000000000000020816681711721685132943093776703e-02
7.500000000000004440892098500626161694526672363281e-01,1.131953208628681643854729799159031244926154613495e-02,3.060430812190266525174564549161004833877086639404e-02,1.000000000000000020816681711721685132943093776703e-02
7.600000000000004529709940470638684928417205810547e-01,1.134169105202454362613107008428414701484143733978e-02,3.061696890185808955786583851477189455181360244751e-02,1.000000000000000020816681711721685132943093776703e-02
7.700000000000004618527782440651208162307739257812e-01,1.136397349874350426457425555781810544431209564209e-02,3.062975337173196727080792811648279894143342971802e-02,1.000000000000000020816681711721685132943093776703e-02
7.800000000000004707345624410663731396198272705078e-01,1.138637957121340672783649239363512606360018253326e-02,3.064266164290188609875542624649824574589729309082e-02,1.000000000000000020816681711721685132943093776703e-02
7.900000000000004796163466380676254630088806152344e-01,1.140890941495984779729955249649719917215406894684e-02,3.065569382735558456865021526027703657746315002441e-02,1.000000000000000020816681711721685132943093776703e-02
8.000000000000004884981308350688777863979339599609e-01,1.143156317626500828588120839413022622466087341309e-02,3.066885003769021650343873375277325976639986038208e-02,1.000000000000000020816681711721685132943093776703e-02
8.100000000000004973799150320701301097869873046875e-01,1.145434100216833998853172005283340695314109325409e-02,3.068213038711161896876511434584244852885603904724e-02,1.000000000000000020816681711721685132943093776703e-02
8.200000000000005062616992290713824331760406494141e-01,1.147724304046724569383641778586024884134531021118e-02,3.069553498943355593353565780034841736778616905212e-02,1.000000000000000020816681711721685132943093776703e-02
8.300000000000005151434834260726347565650939941406e-01,1.150026943971773837893657344011444365605711936951e-02,3.070906395907693417490769149935658788308501243591e-02,1.000000000000000020816681711721685132943093776703e-02
8.400000000000005240252676230738870799541473388672e-01,1.152342034923510560862069951326702721416950225830e-02,3.072271741106900877493757207048474811017513275146e-02,1.000000000000000020816681711721685132943093776703e-02
8.500000000000005329070518200751394033432006835938e-01,1.154669591909454791356370861876712297089397907257e-02,3.073649546104256433110002433295449009165167808533e-02,1.000000000000000020816681711721685132943093776703e-02
8.600000000000005417888360170763917267322540283203e-01,1.157009630013181716856607295085268560796976089478e-02,3.075039822523508922791357633741426980122923851013e-02,1.000000000000000020816681711721685132943093776703e-02
8.700000000000005506706202140776440501213073730469e-01,1.159362164394383588883474800468320609070360660553e-02,3.076442582048791521409647486962057882919907569885e-02,1.000000000000000020816681711721685132943093776703e-02
8.800000000000005595524044110788963735103607177734e-01,1.161727210288931826098757227327951113693416118622e-02,3.077857836424534310193479313966236077249050140381e-02,1.000000000000000020816681711721685132943093776703e-02
8.900000000000005684341886080801486968994140625000e-01,1.164104783008936515320552729235714650712907314301e-02,3.079285597455375805830968261034286115318536758423e-02,1.000000000000000020816681711721685132943093776703e-02
