time,u0,u1,tau
0.000000000000000000000000000000000000000000000000e+00,7.999999999999998778754672912327805534005165100098e-02,2.999999999999999888977697537484345957636833190918e-02,1.000000000000000020816681711721685132943093776703e-02
1.000000000000000020816681711721685132943093776703e-02,8.002081819784548355478648318239720538258552551270e-02,3.000869554547389711496307995730603579431772232056e-02,1.000000000000000020816681711721685132943093776703e-02
2.000000000000000041633363423443370265886187553406e-02,8.004175959962603337238817857723915949463844299316e-02,3.001749356086361522621963615620188647881150245667e-02,1.000000000000000020816681711721685132943093776703e-02
2.999999999999999888977697537484345957636833190918e-02,8.006282437641495941527125523862196132540702819824e-02,3.002639403241054091853179386362171499058604240417e-02,1.000000000000000020816681711721685132943093776703e-02
4.000000000000000083266726846886740531772375106812e-02,8.008401269985734871603710871568182483315467834473e-02,3.003539694654509817350884759434848092496395111084e-02,1.000000000000000020816681711721685132943093776703e-02
5.000000000000000277555756156289135105907917022705e-02,8.010532474217021969842278394935419782996177673340e-02,3.004450228988378088224031614572595572099089622498e-02,1.000000000000000020816681711721685132943093776703e-02
6.000000000000000471844785465691529680043458938599e-02,8.012676067614260544402782215911429375410079956055e-02,3.005371004922614136534164686054282356053590774536e-02,1.000000000000000020816681711721685132943093776703e-02
7.000000000000000666133814775093924254179000854492e-02,8.014832067513572022576795461645815521478652954102e-02,3.006302021155177195410601598268840461969375610352e-02,1.000000000000000020816681711721685132943093776703e-02
8.000000000000000166533453693773481063544750213623e-02,8.017000491308298726345071827381616458296775817871e-02,3.007243276401726228552746533750905655324459075928e-02,1.000000000000000020816681711721685132943093776703e-02
8.999999999999999666933092612453037872910499572754e-02,8.019181356449014974607791828020708635449409484863e-02,3.008194769395312537230147142963687656447291374207e-02,1.000000000000000020816681711721685132943093776703e-02
9.999999999999999167332731531132594682276248931885e-02,8.021374680443534022078466705352184362709522247314e-02,3.009156498886070285614380281913327053189277648926e-02,1.000000000000000020816681711721685132943093776703e-02
1.099999999999999866773237044981215149164199829102e-01,8.023580480856909447062719209498027339577674865723e-02,3.010128463640904944442766577594738919287919998169e-02,1.000000000000000020816681711721685132943093776703e-02
1.199999999999999816813200936849170830100774765015e-01,8.025798775311442090352187506141490302979946136475e-02,3.011110662443179653013913821268943138420581817627e-02,1.000000000000000020816681711721685132943093776703e-02
1.299999999999999766853164828717126511037349700928e-01,8.028029581486677279666963613635743968188762664795e-02,3.012103094092398111736308408126205904409289360046e-02,1.000000000000000020816681711721685132943093776703e-02
1.399999999999999855671006798729649744927883148193e-01,8.030272917119407605213154965895228087902069091797e-02,3.013105757403886086898125995503505691885948181152e-02,1.000000000000000020816681711721685132943093776703e-02
1.499999999999999944488848768742172978818416595459e-01,8.032528800003670144125322849504300393164157867432e-02,3.014118651208470139879480598210648167878389358521e-02,1.000000000000000020816681711721685132943093776703e-02
1.600000000000000033306690738754696212708950042725e-01,8.034797247990743684908920840825885534286499023438e-02,3.015141774352153927751807316326448926702141761780e-02,1.000000000000000020816681711721685132943093776703e-02
1.700000000000000122124532708767219446599483489990e-01,8.037078278989143176325171680218772962689399719238e-02,3.016175125695792075264378695464984048157930374146e-02,1.000000000000000020816681711721685132943093776703e-02
1.800000000000000210942374678779742680490016937256e-01,8.039371910964614176275944146254914812743663787842e-02,3.017218704114761618217954719511908479034900665283e-02,1.000000000000000020816681711721685132943093776703e-02
1.900000000000000299760216648792265914380550384521e-01,8.041678161940121749573506804154021665453910827637e-02,3.018272508498631365170261631192261120304465293884e-02,1.000000000000000020816681711721685132943093776703e-02
2.000000000000000388578058618804789148271083831787e-01,8.043997049995846304604185661446535959839820861816e-02,3.019336537750827789694518799024081090465188026428e-02,1.000000000000000020816681711721685132943093776703e-02
2.100000000000000477395900588817312382161617279053e-01,8.046328593269168327761775572071201168000698089600e-02,3.020410790788300228748575193549186224117875099182e-02,1.000000000000000020816681711721685132943093776703e-02
2.200000000000000566213742558829835616052150726318e-01,8.048672809954655893438513203363982029259204864502e-02,3.021495266541181570763008323865506099537014961243e-02,1.000000000000000020816681711721685132943093776703e-02
2.300000000000000655031584528842358849942684173584e-01,8.051029718304050786237269221601309254765510559082e-02,3.022589963952447902895137588075158419087529182434e-02,1.000000000000000020816681711721685132943093776703e-02
2.400000000000000743849426498854882083833217620850e-01,8.053399336626251847626178914651973173022270202637e-02,3.023694881977575382725476060841174330562353134155e-02,1.000000000000000020816681711721685132943093776703e-02
2.500000000000000555111512312578270211815834045410e-01,8.055781683287296934814492033183341845870018005371e-02,3.024810019584193640507230327330034924671053886414e-02,1.000000000000000020816681711721685132943093776703e-02
2.600000000000000643929354282590793445706367492676e-01,8.058176776710346267407203413313254714012145996094e-02,3.025935375751738834471105121792788850143551826477e-02,1.000000000000000020816681711721685132943093776703e-02
2.700000000000000732747196252603316679596900939941e-01,8.060584635375658835165779692033538594841957092285e-02,3.027070949471101501959680035724886693060398101807e-02,1.000000000000000020816681711721685132943093776703e-02
2.800000000000000821565038222615839913487434387207e-01,8.063005277820568805768886022633523680269718170166e-02,3.028216739744273716672395835303177591413259506226e-02,1.000000000000000020816681711721685132943093776703e-02
2.900000000000000910382880192628363147377967834473e-01,8.065438722639461932573112790123559534549713134766e-02,3.029372745583993123408284020570135908201336860657e-02,1.000000000000000020816681711721685132943093776703e-02
3.000000000000000999200722162640886381268501281738e-01,8.067884988483753350152483108104206621646881103516e-02,3.030538966013385238085220407810993492603302001953e-02,1.000000000000000020816681711721685132943093776703e-02
3.100000000000001088018564132653409615159034729004e-01,8.070344094061852879828933282624348066747188568115e-02,3.031715400065600890533445976871007587760686874390e-02,1.000000000000000020816681711721685132943093776703e-02
3.200000000000001176836406102665932849049568176270e-01,8.072816058139140049654258746159030124545097351074e-02,3.032902046783454361178478109195566503331065177917e-02,1.000000000000000020816681711721685132943093776703e-02
3.300000000000001265654248072678456082940101623535e-01,8.075300899537933563276936865804600529372692108154e-02,3.034098905219055619664203504726174287497997283936e-02,1.000000000000000020816681711721685132943093776703e-02
3.400000000000001354472090042690979316830635070801e-01,8.077798637137457993251388188582495786249637603760e-02,3.035305974433442910420666294157854281365871429443e-02,1.000000000000000020816681711721685132943093776703e-02
3.500000000000001443289932012703502550721168518066e-01,8.080309289873804923232114560960326343774795532227e-02,3.036523253496210827950818611498107202351093292236e-02,1.000000000000000020816681711721685132943093776703e-02
3.600000000000001532107773982716025784611701965332e-01,8.082832876739903804619302718492690473794937133789e-02,3.037750741485135963504404799095937050879001617432e-02,1.000000000000000020816681711721685132943093776703e-02
3.700000000000001620925615952728549018502235412598e-01,8.085369416785480323195400842450908385217189788818e-02,3.038988437485801163973064831225201487541198730469e-02,1.000000000000000020816681711721685132943093776703e-02
3.800000000000001709743457922741072252392768859863e-01,8.087918929117014765761695116452756337821483612061e-02,3.040236340591215627449095393330935621634125709534e-02,1.000000000000000020816681711721685132943093776703e-02
3.900000000000001798561299892753595486283302307129e-01,8.090481432897704550111228627429227344691753387451e-02,3.041494449901433264060734984468581387773156166077e-02,1.000000000000000020816681711721685132943093776703e-02
4.000000000000001887379141862766118720173835754395e-01,8.093056947347419816107816359362914226949214935303e-02,3.042762764523168628194582652213284745812416076660e-02,1.000000000000000020816681711721685132943093776703e-02
4.100000000000001976196983832778641954064369201660e-01,8.095645491742659016765060187026392668485641479492e-02,3.044041283569408687381674383232166292145848274231e-02,1.000000000000000020816681711721685132943093776703e-02
4.200000000000002065014825802791165187954902648926e-01,8.098247085416500345989021525383577682077884674072e-02,3.045330006159023897294169103133754106238484382629e-02,1.000000000000000020816681711721685132943093776703e-02
4.300000000000002153832667772803688421845436096191e-01,8.100861747758554554099674760436755605041980743408e-02,3.046628931416375807295082722703227773308753967285e-02,1.000000000000000020816681711721685132943093776703e-02
4.400000000000002242650509742816211655735969543457e-01,8.103489498214917763352360680073616094887256622314e-02,3.047938058470920502651679839800635818392038345337e-02,1.000000000000000020816681711721685132943093776703e-02
4.500000000000002331468351712828734889626502990723e-01,8.106130356288113181228993653348879888653755187988e-02,3.049257386456812046748865441259113140404224395752e-02,1.000000000000000020816681711721685132943093776703e-02
4.600000000000002420286193682841258123517036437988e-01,8.108784341537043915959515061331330798566341400146e-02,3.050586914512501413021539065084652975201606750488e-02,1.000000000000000020816681711721685132943093776703e-02
4.700000000000002509104035652853781357407569885254e-01,8.111451473576934689813100476385443471372127532959e-02,3.051926641780332294384692204403108917176723480225e-02,1.000000000000000020816681711721685132943093776703e-02
4.800000000000002597921877622866304591298103332520e-01,8.114131772079273552389366841453011147677898406982e-02,3.053276567406136218774115320684359176084399223328e-02,1.000000000000000020816681711721685132943093776703e-02
4.900000000000002686739719592878827825188636779785e-01,8.116825256771753593909579649334773421287536621094e-02,3.054636690538823154406067317268025362864136695862e-02,1.000000000000000020816681711721685132943093776703e-02
5.000000000000002220446049250313080847263336181641e-01,8.119531947438214658507860121972043998539447784424e-02,3.056007010329968992534688254636421333998441696167e-02,1.000000000000000020816681711721685132943093776703e-02
5.100000000000002309263891220325604081153869628906e-01,8.122251863918578118628488482499960809946060180664e-02,3.057387525933402683264716870326083153486251831055e-02,1.000000000000000020816681711721685132943093776703e-02
5.200000000000002398081733190338127315044403076172e-01,8.124985026108781649423207227300736121833324432373e-02,3.058778236504787820249084973056596936658024787903e-02,1.000000000000000020816681711721685132943093776703e-02
5.300000000000002486899575160350650548934936523438e-01,8.127731453960714003148524398056906647980213165283e-02,3.060179141201203184552426250775170046836137771606e-02,1.000000000000000020816681711721685132943093776703e-02
5.400000000000002575717417130363173782825469970703e-01,8.130491167482147008005455290913232602179050445557e-02,3.061590239180719472122937929725594585761427879333e-02,1.000000000000000020816681711721685132943093776703e-02
5.500000000000002664535259100375697016716003417969e-01,8.133264186736666179200483384192921221256256103516e-02,3.063011529601974286540766456710116472095251083374e-02,1.000000000000000020816681711721685132943093776703e-02
5.600000000000002753353101070388220250606536865234e-01,8.136050531843598554448959703222499229013919830322e-02,3.064443011623743315374746032375696813687682151794e-02,1.000000000000000020816681711721685132943093776703e-02
5.700000000000002842170943040400743484497070312500e-01,8.138850222977936366142159840819658711552619934082e-02,3.065884684404508384036880386247503338381648063660e-02,1.000000000000000020816681711721685132943093776703e-02
5.800000000000002930988785010413266718387603759766e-01,8.141663280370266264629464103563805110752582550049e-02,3.067336547102024815747434161039564060047268867493e-02,1.000000000000000020816681711721685132943093776703e-02
5.900000000000003019806626980425789952278137207031e-01,8.144489724306686051491510625055525451898574829102e-02,3.068798598872882893440205975821299944072961807251e-02,1.000000000000000020816681711721685132943093776703e-02
6.000000000000003108624468950438313186168670654297e-01,8.147329575128729739486033167850109748542308807373e-02,3.070270838872068974723106293822638690471649169922e-02,1.000000000000000020816681711721685132943093776703e-02
6.100000000000003197442310920450836420059204101562e-01,8.150182853233285673599795018162694759666919708252e-02,3.071753266252522096557697750540683045983314514160e-02,1.000000000000000020816681711721685132943093776703e-02
6.200000000000003286260152890463359653949737548828e-01,8.153049579072510488764180536236381158232688903809e-02,3.073245880164688498270564309677865821868181228638e-02,1.000000000000000020816681711721685132943093776703e-02
6.300000000000003375077994860475882887840270996094e-01,8.155929773153745843128348269601701758801937103271e-02,3.074748679756073022062423660827334970235824584961e-02,1.000000000000000020816681711721685132943093776703e-02
6.400000000000003463895836830488406121730804443359e-01,8.158823456039432375774822503444738686084747314453e-02,3.076261664170787737959678054266987601295113563538e-02,1.000000000000000020816681711721685132943093776703e-02
6.500000000000003552713678800500929355621337890625e-01,8.161730648347018113319961685192538425326347351074e-02,3.077784832549096752374317986777896294370293617249e-02,1.000000000000000020816681711721685132943093776703e-02
6.600000000000003641531520770513452589511871337891e-01,8.164651370748871039850769193435553461313247680664e-02,3.079318184026960322774435496739897644147276878357e-02,1.000000000000000020816681711721685132943093776703e-02
6.700000000000003730349362740525975823402404785156e-01,8.167585643972181952410238636730355210602283477783e-02,3.080861717735572727350223942721640923991799354553e-02,1.000000000000000020816681711721685132943093776703e-02
6.800000000000003819167204710538499057292938232422e-01,8.170533488798872867597822278185049071907997131348e-02,3.082415432800900134679977782070636749267578125000e-02,1.000000000000000020816681711721685132943093776703e-02
6.900000000000003907985046680551022291183471679688e-01,8.173494926065498489275995552816311828792095184326e-02,3.083979328343213963115054809804860269650816917419e-02,1.000000000000000020816681711721685132943093776703e-02
7.000000000000003996802888650563545525074005126953e-01,8.176469976663147676276821584906429052352905273438e-02,3.085553403476621464607276834613003302365541458130e-02,1.000000000000000020816681711721685132943093776703e-02
7.100000000000004085620730620576068758964538574219e-01,8.179458661537343522329734923914656974375247955322e-02,3.087137657308593879923463987324794288724660873413e-02,1.000000000000000020816681711721685132943093776703e-02
7.200000000000004174438572590588591992855072021484e-01,8.182461001687937884874202154605882242321968078613e-02,3.088732088939490083578931489682872779667377471924e-02,1.000000000000000020816681711721685132943093776703e-02
7.300000000000004263256414560601115226745605468750e-01,8.185477018169011464987505632961983792483806610107e-02,3.090336697462079534881596032391826156526803970337e-02,1.000000000000000020816681711721685132943093776703e-02
7.400000000000004352074256530613638460636138916016e-01,8.188506732088760009524719407636439427733421325684e-02,3.091951481961060024805654222745943116024136543274e-02,1.000000000000000020816681711721685132943093776703e-02
7.500000000000004440892098500626161694526672363281e-01,8.191550164609391615488931392974336631596088409424e-02,3.093576441512573688141785055449872743338346481323e-02,1.000000000000000020816681711721685132943093776703e-02
7.600000000000004529709940470638684928417205810547e-01,8.194607336947012932171219290466979146003723144531e-02,3.095211575183719546200400429825094761326909065247e-02,1.000000000000000020816681711721685132943093776703e-02
7.700000000000004618527782440651208162307739257812e-01,8.197678270371516751069407291652169078588485717773e-02,3.096856882032062233123248518040782073512673377991e-02,1.000000000000000020816681711721685132943093776703e-02
7.800000000000004707345624410663731396198272705078e-01,8.200762986206465432470480436677462421357631683350e-02,3.098512361105138987471541156537568895146250724792e-02,1.000000000000000020816681711721685132943093776703e-02
7.900000000000004796163466380676254630088806152344e-01,8.203861505828975719811779754309100098907947540283e-02,3.100178011439963174367129283837130060419440269470e-02,1.000000000000000020816681711721685132943093776703e-02
8.000000000000004884981308350688777863979339599609e-01,8.206973850669599390705855057603912428021430969238e-02,3.101853832062523991242031229376152623444795608521e-02,1.000000000000000020816681711721685132943093776703e-02
8.100000000000004973799150320701301097869873046875e-01,8.210100042212201132407756176689872518181800842285e-02,3.103539821987283051085704244087537517771124839783e-02,1.000000000000000020816681711721685132943093776703e-02
8.200000000000005062616992290713824331760406494141e-01,8.213240101993835029503543410100974142551422119141e-02,3.105235980216669577913535249535925686359405517578e-02,1.000000000000000020816681711721685132943093776703e-02
8.300000000000005151434834260726347565650939941406e-01,8.216394051604619663820017194666434079408645629883e-02,3.106942305740569704175513265909103211015462875366e-02,1.000000000000000020816681711721685132943093776703e-02
8.400000000000005240252676230738870799541473388672e-01,8.219561912687609050998105431062867864966392517090e-02,3.108658797535815074275511449286568677052855491638e-02,1.000000000000000020816681711721685132943093776703e-02
8.500000000000005329070518200751394033432006835938e-01,8.222743706938664964845031590812141075730323791504e-02,3.110385454565666590864836393848236184567213058472e-02,1.000000000000000020816681711721685132943093776703e-02
8.600000000000005417888360170763917267322540283203e-01,8.225939456106325098350140478942194022238254547119e-02,3.112122275779296426412301457276043947786092758179e-02,1.000000000000000020816681711721685132943093776703e-02
8.700000000000005506706202140776440501213073730469e-01,8.229149181991665673585600870865164324641227722168e-02,3.113869260111265524493262546457117423415184020996e-02,1.000000000000000020816681711721685132943093776703e-02
8.800000000000005595524044110788963735103607177734e-01,8.232372906448169602722231275038211606442928314209e-02,3.115626406480998325521092340295581379905343055725e-02,1.000000000000000020816681711721685132943093776703e-02
8.900000000000005684341886080801486968994140625000e-01,8.235610651381584934593860225504613481462001800537e-02,3.117393713792255063865788144994439790025353431702e-02,1.000000000000000020816681711721685132943093776703e-02
