time,u0,u1,tau
0.000000000000000000000000000000000000000000000000e+00,4.999999999999998889776975374843459576368331909180e-02,-5.000000000000000277555756156289135105907917022705e-02,1.000000000000000020816681711721685132943093776703e-02
1.000000000000000020816681711721685132943093776703e-02,4.996990928050834557261339341494021937251091003418e-02,-4.999009266883396029879094157877261750400066375732e-02,1.000000000000000020816681711721685132943093776703e-02
2.000000000000000041633363423443370265886187553406e-02,4.993964507277606074131526270321046467870473861694e-02,-4.998037080791313535588216154792462475597858428955e-02,1.000000000000000020816681711721685132943093776703e-02
2.999999999999999888977697537484345957636833190918e-02,4.990920733027741362786144918572972528636455535889e-02,-4.997083439438470414684090314949571620672941207886e-02,1.000000000000000020816681711721685132943093776703e-02
4.000000000000000083266726846886740531772375106812e-02,4.987859600564958223456457631073135416954755783081e-02,-4.996148340642031504543751907476689666509628295898e-02,1.000000000000000020816681711721685132943093776703e-02
5.000000000000000277555756156289135105907917022705e-02,4.984781105069051310163530388308572582900524139404e-02,-4.995231782321743474462039102945709601044654846191e-02,1.000000000000000020816681711721685132943093776703e-02
6.000000000000000471844785465691529680043458938599e-02,4.981685241635684657790505980301531963050365447998e-02,-4.994333762500070827972109555048518814146518707275e-02,1.000000000000000020816681711721685132943093776703e-02
7.000000000000000666133814775093924254179000854492e-02,4.978572005276181433597315617589629255235195159912e-02,-4.993454279302326354050833856490498874336481094360e-02,1.000000000000000020816681711721685132943093776703e-02
8.000000000000000166533453693773481063544750213623e-02,4.975441390917316464292952105097356252372264862061e-02,-4.992593330956803659992360167052538599818944931030e-02,1.000000000000000020816681711721685132943093776703e-02
8.999999999999999666933092612453037872910499572754e-02,4.972293393401111538665304578898940235376358032227e-02,-4.991750915794902765387774934424669481813907623291e-02,1.000000000000000020816681711721685132943093776703e-02
9.999999999999999167332731531132594682276248931885e-02,4.969128007484630710210993242981203366070985794067e-02,-4.990927032251259165551715568653889931738376617432e-02,1.000000000000000020816681711721685132943093776703e-02
1.099999999999999866773237044981215149164199829102e-01,4.965945227839779069212156059620610903948545455933e-02,-4.990121678863866649944469600086449645459651947021e-02,1.000000000000000020816681711721685132943093776703e-02
1.199999999999999816813200936849170830100774765015e-01,4.962745049053100820923845049037481658160686492920e-02,-4.989334854274202202262245009478647261857986450195e-02,1.000000000000000020816681711721685132943093776703e-02
1.299999999999999766853164828717126511037349700928e-01,4.959527465625582220987155324110062792897224426270e-02,-4.988566557227343961633536650879250373691320419312e-02,1.000000000000000020816681711721685132943093776703e-02
1.399999999999999855671006798729649744927883148193e-01,4.956292471972451041395402171474415808916091918945e-02,-4.987816786572093347151835018848942127078771591187e-02,1.000000000000000020816681711721685132943093776703e-02
1.499999999999999944488848768742172978818416595459e-01,4.953040062422983669243592430575517937541007995605e-02,-4.987085541261088855735650327005714643746614456177e-02,1.000000000000000020816681711721685132943093776703e-02
1.600000000000000033306690738754696212708950042725e-01,4.949770231220308042141553528381336946040391921997e-02,-4.986372820350923329435488540184451267123222351074e-02,1.000000000000000020816681711721685132943093776703e-02
1.700000000000000122124532708767219446599483489990e-01,4.946482972521212828631576030602445825934410095215e-02,-4.985678623002257059404485062259482219815254211426e-02,1.000000000000000020816681711721685132943093776703e-02
1.800000000000000210942374678779742680490016937256e-01,4.943178280395954526937885020743124186992645263672e-02,-4.985002948479927420422086470352951437234878540039e-02,1.000000000000000020816681711721685132943093776703e-02
1.900000000000000299760216648792265914380550384521e-01,4.939856148828068033163063432766648475080728530884e-02,-4.984345796153060587085903421211696695536375045776e-02,1.000000000000000020816681711721685132943093776703e-02
2.000000000000000388578058618804789148271083831787e-01,4.936516571714178597263256165206257719546556472778e-02,-4.983707165495176311109659650355752091854810714722e-02,1.000000000000000020816681711721685132943093776703e-02
2.100000000000000477395900588817312382161617279053e-01,4.933159542863815166802154976721794810146093368530e-02,-4.983087056084296168068092924841039348393678665161e-02,1.000000000000000020816681711721685132943093776703e-02
2.200000000000000566213742558829835616052150726318e-01,4.929785055999225118483764163102023303508758544922e-02,-4.982485467603045559137342479516519233584403991699e-02,1.000000000000000020816681711721685132943093776703e-02
2.300000000000000655031584528842358849942684173584e-01,4.926393104755188989685166234266944229602813720703e-02,-4.981902399838755712835336453281342983245849609375e-02,1.000000000000000020816681711721685132943093776703e-02
2.400000000000000743849426498854882083833217620850e-01,4.922983682678840761104410717052815016359090805054e-02,-4.981337852683563605094008153173490427434444427490e-02,1.000000000000000020816681711721685132943093776703e-02
2.500000000000000555111512312578270211815834045410e-01,4.919556783229483976072060613660141825675964355469e-02,-4.980791826134509103773950755567057058215141296387e-02,1.000000000000000020816681711721685132943093776703e-02
2.600000000000000643929354282590793445706367492676e-01,4.916112399778414798756642767330049537122249603271e-02,-4.980264320293633500957852788815216626971960067749e-02,1.000000000000000020816681711721685132943093776703e-02
2.700000000000000732747196252603316679596900939941e-01,4.912650525608743684591317446574976202100515365601e-02,-4.979755335368069718571248927219130564481019973755e-02,1.000000000000000020816681711721685132943093776703e-02
2.800000000000000821565038222615839913487434387207e-01,4.909171153915217050700547929409367498010396957397e-02,-4.979264871670138065118393910779559519141912460327e-02,1.000000000000000020816681711721685132943093776703e-02
2.900000000000000910382880192628363147377967834473e-01,4.905674277804045191331283604085911065340042114258e-02,-4.978792929617433665745451776274421717971563339233e-02,1.000000000000000020816681711721685132943093776703e-02
3.000000000000000999200722162640886381268501281738e-01,4.902159890292726029947800725494744256138801574707e-02,-4.978339509732916667861246651227702386677265167236e-02,1.000000000000000020816681711721685132943093776703e-02
3.100000000000001088018564132653409615159034729004e-01,4.898627984309875116331056688068201765418052673340e-02,-4.977904612644997589532280812818498816341161727905e-02,1.000000000000000020816681711721685132943093776703e-02
3.200000000000001176836406102665932849049568176270e-01,4.895078552695053542009873126517049968242645263672e-02,-4.977488239087621280098971965344389900565147399902e-02,1.000000000000000020816681711721685132943093776703e-02
3.300000000000001265654248072678456082940101623535e-01,4.891511588198598631249680579458072315901517868042e-02,-4.977090389900351574681280908407643437385559082031e-02,1.000000000000000020816681711721685132943093776703e-02
3.400000000000001354472090042690979316830635070801e-01,4.887927083481458101488215106655843555927276611328e-02,-4.976711066028449009790435297873045783489942550659e-02,1.000000000000000020816681711721685132943093776703e-02
3.500000000000001443289932012703502550721168518066e-01,4.884325031115020060434872561927477363497018814087e-02,-4.976350268522952008387605360439920332282781600952e-02,1.000000000000000020816681711721685132943093776703e-02
3.600000000000001532107773982716025784611701965332e-01,4.880705423580952023732137945444264914840459823608e-02,-4.976007998540751819938066091708606109023094177246e-02,1.000000000000000020816681711721685132943093776703e-02
3.700000000000001620925615952728549018502235412598e-01,4.877068253271033687612501239527773577719926834106e-02,-4.975684257344667460465359454246936365962028503418e-02,1.000000000000000020816681711721685132943093776703e-02
3.800000000000001709743457922741072252392768859863e-01,4.873413512486997334338667542397161014378070831299e-02,-4.975379046303519264826675794211041647940874099731e-02,1.000000000000000020816681711721685132943093776703e-02
3.900000000000001798561299892753595486283302307129e-01,4.869741193440366155975596029747975990176200866699e-02,-4.975092366892198969541283304351964034140110015869e-02,1.000000000000000020816681711721685132943093776703e-02
4.000000000000001887379141862766118720173835754395e-01,4.866051288252293272051929307053796947002410888672e-02,-4.974824220691739795618957487022271379828453063965e-02,1.000000000000000020816681711721685132943093776703e-02
4.100000000000001976196983832778641954064369201660e-01,4.862343788953405604447155496927734930068254470825e-02,-4.974574609389381674162677882122807204723358154297e-02,1.000000000000000020816681711721685132943093776703e-02
4.200000000000002065014825802791165187954902648926e-01,4.858618687483646364499989545038260985165834426880e-02,-4.974343534778637859750105576495116110891103744507e-02,1.000000000000000020816681711721685132943093776703e-02
4.300000000000002153832667772803688421845436096191e-01,4.854875975692119621784925698193546850234270095825e-02,-4.974130998759355992699937587531167082488536834717e-02,1.000000000000000020816681711721685132943093776703e-02
4.400000000000002242650509742816211655735969543457e-01,4.851115645336936260667570763871481176465749740601e-02,-4.973937003337781936895822809674427844583988189697e-02,1.000000000000000020816681711721685132943093776703e-02
4.500000000000002331468351712828734889626502990723e-01,4.847337688085061324638758151195361278951168060303e-02,-4.973761550626616678716374053692561574280261993408e-02,1.000000000000000020816681711721685132943093776703e-02
4.600000000000002420286193682841258123517036437988e-01,4.843542095512162748427442693355260416865348815918e-02,-4.973604642845073919854570476672961376607418060303e-02,1.000000000000000020816681711721685132943093776703e-02
4.700000000000002509104035652853781357407569885254e-01,4.839728859102461477892376251475070603191852569580e-02,-4.973466282318935588468988839849771466106176376343e-02,1.000000000000000020816681711721685132943093776703e-02
4.800000000000002597921877622866304591298103332520e-01,4.835897970248582283803173709202383179217576980591e-02,-4.973346471480604574777473203539557289332151412964e-02,1.000000000000000020816681711721685132943093776703e-02
4.900000000000002686739719592878827825188636779785e-01,4.832049420251406657289550139466882683336734771729e-02,-4.973245212869156772761414231354137882590293884277e-02,1.000000000000000020816681711721685132943093776703e-02
5.000000000000002220446049250313080847263336181641e-01,4.828183200319926399179948361961578484624624252319e-02,-4.973162509130388958533686150076391641050577163696e-02,1.000000000000000020816681711721685132943093776703e-02
5.100000000000002309263891220325604081153869628906e-01,4.824299301571100678787118454238225240260362625122e-02,-4.973098363016866668706583709536062087863683700562e-02,1.000000000000000020816681711721685132943093776703e-02
5.200000000000002398081733190338127315044403076172e-01,4.820397715029709623246745309188554529100656509399e-02,-4.973052777387969303202197579594212584197521209717e-02,1.000000000000000020816681711721685132943093776703e-02
5.300000000000002486899575160350650548934936523438e-01,4.816478431628214845749980099753884132951498031616e-02,-4.973025755209934534173399356404843274503946304321e-02,1.000000000000000020816681711721685132943093776703e-02
5.400000000000002575717417130363173782825469970703e-01,4.812541442206617198218410180743376258760690689087e-02,-4.973017299555897163809703442893805913627147674561e-02,1.000000000000000020816681711721685132943093776703e-02
5.500000000000002664535259100375697016716003417969e-01,4.808586737512317299536590553543646819889545440674e-02,-4.973027413605930063811300101406231988221406936646e-02,1.000000000000000020816681711721685132943093776703e-02
5.600000000000002753353101070388220250606536865234e-01,4.804614308199977451563356112274050246924161911011e-02,-4.973056100647080951526746162016934249550104141235e-02,1.000000000000000020816681711721685132943093776703e-02
5.700000000000002842170943040400743484497070312500e-01,4.800624144831384942921914671387639828026294708252e-02,-4.973103364073407084422484558672294951975345611572e-02,1.000000000000000020816681711721685132943093776703e-02
5.800000000000002930988785010413266718387603759766e-01,4.796616237875316740568720774717803578823804855347e-02,-4.973169207386009260662973474609316326677799224854e-02,1.000000000000000020816681711721685132943093776703e-02
5.900000000000003019806626980425789952278137207031e-01,4.792590577707404181362349504524900112301111221313e-02,-4.973253634193061656354473143437644466757774353027e-02,1.000000000000000020816681711721685132943093776703e-02
6.000000000000003108624468950438313186168670654297e-01,4.788547154609999051411151071988570038229227066040e-02,-4.973356648209842356678223040944430977106094360352e-02,1.000000000000000020816681711721685132943093776703e-02
6.100000000000003197442310920450836420059204101562e-01,4.784485958772043828757247752037073951214551925659e-02,-4.973478253258759029797886341839330270886421203613e-02,1.000000000000000020816681711721685132943093776703e-02
6.200000000000003286260152890463359653949737548828e-01,4.780406980288939844392359646008117124438285827637e-02,-4.973618453269375294656384767222334630787372589111e-02,1.000000000000000020816681711721685132943093776703e-02
6.300000000000003375077994860475882887840270996094e-01,4.776310209162418218831192007201025262475013732910e-02,-4.973777252278432231547000696991744916886091232300e-02,1.000000000000000020816681711721685132943093776703e-02
6.400000000000003463895836830488406121730804443359e-01,4.772195635300410104795432175706082489341497421265e-02,-4.973954654429870586573869672974979039281606674194e-02,1.000000000000000020816681711721685132943093776703e-02
6.500000000000003552713678800500929355621337890625e-01,4.768063248516922481012869639016571454703807830811e-02,-4.974150663974847424997349776276678312569856643677e-02,1.000000000000000020816681711721685132943093776703e-02
6.600000000000003641531520770513452589511871337891e-01,4.763913038531911170458954529749462381005287170410e-02,-4.974365285271755560136952567518164869397878646851e-02,1.000000000000000020816681711721685132943093776703e-02
6.700000000000003730349362740525975823402404785156e-01,4.759744994971155246377136904811777640134096145630e-02,-4.974598522786236737269760510571359191089868545532e-02,1.000000000000000020816681711721685132943093776703e-02
6.800000000000003819167204710538499057292938232422e-01,4.755559107366135601635548368903982918709516525269e-02,-4.974850381091193429750063614847022108733654022217e-02,1.000000000000000020816681711721685132943093776703e-02
6.900000000000003907985046680551022291183471679688e-01,4.751355365153912824194293307300540618598461151123e-02,-4.975120864866802022907776859028672333806753158569e-02,1.000000000000000020816681711721685132943093776703e-02
7.000000000000003996802888650563545525074005126953e-01,4.747133757677004378683349727907625492662191390991e-02,-4.975409978900517671274172926132450811564922332764e-02,1.000000000000000020816681711721685132943093776703e-02
7.100000000000004085620730620576068758964538574219e-01,4.742894274183268032984983619826380163431167602539e-02,-4.975717728087083319143957282904011663049459457397e-02,1.000000000000000020816681711721685132943093776703e-02
7.200000000000004174438572590588591992855072021484e-01,4.738636903825781121479820967579144053161144256592e-02,-4.976044117428532476132829742709873244166374206543e-02,1.000000000000000020816681711721685132943093776703e-02
7.300000000000004263256414560601115226745605468750e-01,4.734361635662724665518652500395546667277812957764e-02,-4.976389152034191992735046028428769204765558242798e-02,1.000000000000000020816681711721685132943093776703e-02
7.400000000000004352074256530613638460636138916016e-01,4.730068458657267493894238441498600877821445465088e-02,-4.976752837120680672544636991005972959101200103760e-02,1.000000000000000020816681711721685132943093776703e-02
7.500000000000004440892098500626161694526672363281e-01,4.725757361677450363313113257390796206891536712646e-02,-4.977135178011909966144799000176135450601577758789e-02,1.000000000000000020816681711721685132943093776703e-02
7.600000000000004529709940470638684928417205810547e-01,4.721428333496073548314342360754380933940410614014e-02,-4.977536180139075644435209255789231974631547927856e-02,1.000000000000000020816681711721685132943093776703e-02
7.700000000000004618527782440651208162307739257812e-01,4.717081362790583737298888422628806438297033309937e-02,-4.977955849040654329185073834196373354643583297729e-02,1.000000000000000020816681711721685132943093776703e-02
7.800000000000004707345624410663731396198272705078e-01,4.712716438142963704116539247479522600769996643066e-02,-4.978394190362393778581662218130077235400676727295e-02,1.000000000000000020816681711721685132943093776703e-02
7.900000000000004796163466380676254630088806152344e-01,4.708333548039621285763445257543935440480709075928e-02,-4.978851209857301785000061045138863846659660339355e-02,1.000000000000000020816681711721685132943093776703e-02
8.000000000000004884981308350688777863979339599609e-01,4.703932680871281829526608930791553575545549392700e-02,-4.979326913385633684994147074576176237314939498901e-02,1.000000000000000020816681711721685132943093776703e-02
8.100000000000004973799150320701301097869873046875e-01,4.699513824932879252349593457438459154218435287476e-02,-4.979821306914877093729998591697949450463056564331e-02,1.000000000000000020816681711721685132943093776703e-02
8.200000000000005062616992290713824331760406494141e-01,4.695076968423451263534573740798805374652147293091e-02,-4.980334396519734557751135639591666404157876968384e-02,1.000000000000000020816681711721685132943093776703e-02
8.300000000000005151434834260726347565650939941406e-01,4.690622099446031811886825835244962945580482482910e-02,-4.980866188382104126075589078936900477856397628784e-02,1.000000000000000020816681711721685132943093776703e-02
8.400000000000005240252676230738870799541473388672e-01,4.686149206007549083974339509950368665158748626709e-02,-4.981416688791057145735408084874507039785385131836e-02,1.000000000000000020816681711721685132943093776703e-02
8.500000000000005329070518200751394033432006835938e-01,4.681658276018721420719259640463860705494880676270e-02,-4.981985904142814669537386862430139444768428802490e-02,1.000000000000000020816681711721685132943093776703e-02
8.600000000000005417888360170763917267322540283203e-01,4.677149297293955315657498772452527191489934921265e-02,-4.982573840940720394376839408323576208204030990601e-02,1.000000000000000020816681711721685132943093776703e-02
8.700000000000005506706202140776440501213073730469e-01,4.672622257551246188755911248335905838757753372192e-02,-4.983180505795214293440764663500885944813489913940e-02,1.000000000000000020816681711721685132943093776703e-02
8.800000000000005595524044110788963735103607177734e-01,4.668077144412077772450686552474508062005043029785e-02,-4.983805905423800003406498149161052424460649490356e-02,1.000000000000000020816681711721685132943093776703e-02
8.900000000000005684341886080801486968994140625000e-01,4.663513945401323579353913828526856377720832824707e-02,-4.984450046651012211640363602782599627971649169922e-02,1.000000000000000020816681711721685132943093776703e-02
