time,u0,u1,tau
0.000000000000000000000000000000000000000000000000e+00,1.999999999999999000799277837359113618731498718262e-02,-5.000000000000000277555756156289135105907917022705e-02,1.000000000000000020816681711721685132943093776703e-02
1.000000000000000020816681711721685132943093776703e-02,1.997410731269457298542313594680308597162365913391e-02,-4.999441338820676677956456046558741945773363113403e-02,1.000000000000000020816681711721685132943093776703e-02
2.000000000000000041633363423443370265886187553406e-02,1.994803323292117930298772421338071580976247787476e-02,-4.998902032269241652029378997212916146963834762573e-02,1.000000000000000020816681711721685132943093776703e-02
2.999999999999999888977697537484345957636833190918e-02,1.992177767491497622498464181717281462624669075012e-02,-4.998382082794374653422764254173671361058950424194e-02,1.000000000000000020816681711721685132943093776703e-02
4.000000000000000083266726846886740531772375106812e-02,1.989534055189479469505364761516830185428261756897e-02,-4.997881492948775400408933933249500114470720291138e-02,1.000000000000000020816681711721685132943093776703e-02
5.000000000000000277555756156289135105907917022705e-02,1.986872177606014214235052861567965010181069374084e-02,-4.997400265389254775394434204827120993286371231079e-02,1.000000000000000020816681711721685132943093776703e-02
6.000000000000000471844785465691529680043458938599e-02,1.984192125858824998219098745266819605603814125061e-02,-4.996938402876813928310539836274983827024698257446e-02,1.000000000000000020816681711721685132943093776703e-02
7.000000000000000666133814775093924254179000854492e-02,1.981493890963112458614148181368364021182060241699e-02,-4.996495908276731012787053032297990284860134124756e-02,1.000000000000000020816681711721685132943093776703e-02
8.000000000000000166533453693773481063544750213623e-02,1.978777463831260519100396777503192424774169921875e-02,-4.996072784558636126206465633003972470760345458984e-02,1.000000000000000020816681711721685132943093776703e-02
8.999999999999999666933092612453037872910499572754e-02,1.976042835272545997171711462669918546453118324280e-02,-4.995669034796593188652025219198549166321754455566e-02,1.000000000000000020816681711721685132943093776703e-02
9.999999999999999167332731531132594682276248931885e-02,1.973289995992847864481056774366152239963412284851e-02,-4.995284662169172107404335747560253366827964782715e-02,1.000000000000000020816681711721685132943093776703e-02
1.099999999999999866773237044981215149164199829102e-01,1.970518936594359282743482708610827103257179260254e-02,-4.994919669959523716995519748707010876387357711792e-02,1.000000000000000020816681711721685132943093776703e-02
1.199999999999999816813200936849170830100774765015e-01,1.967729647575300333528502960689365863800048828125e-02,-4.994574061555449862037647790202754549682140350342e-02,1.000000000000000020816681711721685132943093776703e-02
1.299999999999999766853164828717126511037349700928e-01,1.964922119329632482775949142705940175801515579224e-02,-4.994247840449472786161777548841200768947601318359e-02,1.000000000000000020816681711721685132943093776703e-02
1.399999999999999855671006798729649744927883148193e-01,1.962096342146775473924691368665662594139575958252e-02,-4.993941010238901051510040929315437097102403640747e-02,1.000000000000000020816681711721685132943093776703e-02
1.499999999999999944488848768742172978818416595459e-01,1.959252306211323527151968448833940783515572547913e-02,-4.993653574625894070448950401441834401339292526245e-02,1.000000000000000020816681711721685132943093776703e-02
1.600000000000000033306690738754696212708950042725e-01,1.956390001602766395838450819155696080997586250305e-02,-4.993385537417523861725143774492607917636632919312e-02,1.000000000000000020816681711721685132943093776703e-02
1.700000000000000122124532708767219446599483489990e-01,1.953509418295209035254522689228906529024243354797e-02,-4.993136902525836112731738580805540550500154495239e-02,1.000000000000000020816681711721685132943093776703e-02
1.800000000000000210942374678779742680490016937256e-01,1.950610546157093352914735362446663202717900276184e-02,-4.992907673967906384548953724333841819316148757935e-02,1.000000000000000020816681711721685132943093776703e-02
1.900000000000000299760216648792265914380550384521e-01,1.947693374950922734489822119030577596276998519897e-02,-4.992697855865896316984731129196006804704666137695e-02,1.000000000000000020816681711721685132943093776703e-02
2.000000000000000388578058618804789148271083831787e-01,1.944757894332986916663408294425607891753315925598e-02,-4.992507452447105670279015043888648506253957748413e-02,1.000000000000000020816681711721685132943093776703e-02
2.100000000000000477395900588817312382161617279053e-01,1.941804093853088941656892529863398522138595581055e-02,-4.992336468044025060697421736222167965024709701538e-02,1.000000000000000020816681711721685132943093776703e-02
2.200000000000000566213742558829835616052150726318e-01,1.938831962954272805643718413648457499220967292786e-02,-4.992184907094382451120395671750884503126144409180e-02,1.000000000000000020816681711721685132943093776703e-02
2.300000000000000655031584528842358849942684173584e-01,1.935841490972553535776512489974265918135643005371e-02,-4.992052774141191029411146473648841492831707000732e-02,1.000000000000000020816681711721685132943093776703e-02
2.400000000000000743849426498854882083833217620850e-01,1.932832667136647961103612658462225226685404777527e-02,-4.991940073832792229557853147525747772306203842163e-02,1.000000000000000020816681711721685132943093776703e-02
2.500000000000000555111512312578270211815834045410e-01,1.929805480567706871264377355146280024200677871704e-02,-4.991846810922898058926477915520081296563148498535e-02,1.000000000000000020816681711721685132943093776703e-02
2.600000000000000643929354282590793445706367492676e-01,1.926759920279050297686751491710310801863670349121e-02,-4.991772990270629262177237706055166199803352355957e-02,1.000000000000000020816681711721685132943093776703e-02
2.700000000000000732747196252603316679596900939941e-01,1.923695975175901407006051613279851153492927551270e-02,-4.991718616840554872959856425040925387293100357056e-02,1.000000000000000020816681711721685132943093776703e-02
2.800000000000000821565038222615839913487434387207e-01,1.920613634055124210875398205189412692561745643616e-02,-4.991683695702724132825522929124417714774608612061e-02,1.000000000000000020816681711721685132943093776703e-02
2.900000000000000910382880192628363147377967834473e-01,1.917512885604961969665538390472647733986377716064e-02,-4.991668232032700491807020171108888462185859680176e-02,1.000000000000000020816681711721685132943093776703e-02
3.000000000000000999200722162640886381268501281738e-01,1.914393718404775943109363822713930858299136161804e-02,-4.991672231111591445662512001035793218761682510376e-02,1.000000000000000020816681711721685132943093776703e-02
3.100000000000001088018564132653409615159034729004e-01,1.911256120924787957338075727875548182055354118347e-02,-4.991695698326075597561768404375470709055662155151e-02,1.000000000000000020816681711721685132943093776703e-02
3.200000000000001176836406102665932849049568176270e-01,1.908100081525821931083264360040629981085658073425e-02,-4.991738639168430413661781130940653383731842041016e-02,1.000000000000000020816681711721685132943093776703e-02
3.300000000000001265654248072678456082940101623535e-01,1.904925588459047483547159629324596608057618141174e-02,-4.991801059236551652009694635125924833118915557861e-02,1.000000000000000020816681711721685132943093776703e-02
3.400000000000001354472090042690979316830635070801e-01,1.901732629865726317830443292677955469116568565369e-02,-4.991882964233976260892688969761366024613380432129e-02,1.000000000000000020816681711721685132943093776703e-02
3.500000000000001443289932012703502550721168518066e-01,1.898521193776958604360061144689098000526428222656e-02,-4.991984359969900419962129944906337186694145202637e-02,1.000000000000000020816681711721685132943093776703e-02
3.600000000000001532107773982716025784611701965332e-01,1.895291268113430405151120794471353292465209960938e-02,-4.992105252359194805800157723751908633857965469360e-02,1.000000000000000020816681711721685132943093776703e-02
3.700000000000001620925615952728549018502235412598e-01,1.892042840685163873626351005441392771899700164795e-02,-4.992245647422418469707494637077616062015295028687e-02,1.000000000000000020816681711721685132943093776703e-02
3.800000000000001709743457922741072252392768859863e-01,1.888775899191268148324951425820472650229930877686e-02,-4.992405551285829246044301044094027020037174224854e-02,1.000000000000000020816681711721685132943093776703e-02
3.900000000000001798561299892753595486283302307129e-01,1.885490431219691287445527905219933018088340759277e-02,-4.992584970181394160571031193285307381302118301392e-02,1.000000000000000020816681711721685132943093776703e-02
4.000000000000001887379141862766118720173835754395e-01,1.882186424246973938112503788033791352063417434692e-02,-4.992783910446792206005994785300572402775287628174e-02,1.000000000000000020816681711721685132943093776703e-02
4.100000000000001976196983832778641954064369201660e-01,1.878863865638004393421311988277011550962924957275e-02,-4.993002378525421974808651270905102137476205825806e-02,1.000000000000000020816681711721685132943093776703e-02
4.200000000000002065014825802791165187954902648926e-01,1.875522742645774343372977455146610736846923828125e-02,-4.993240380966399577511438678811828140169382095337e-02,1.000000000000000020816681711721685132943093776703e-02
4.300000000000002153832667772803688421845436096191e-01,1.872163042411137748310956396835535997524857521057e-02,-4.993497924424559336609164006404171232134103775024e-02,1.000000000000000020816681711721685132943093776703e-02
4.400000000000002242650509742816211655735969543457e-01,1.868784751962568324579194722900865599513053894043e-02,-4.993775015660449623222660875399014912545680999756e-02,1.000000000000000020816681711721685132943093776703e-02
4.500000000000002331468351712828734889626502990723e-01,1.865387858215920846571833635607617907226085662842e-02,-4.994071661540326612094276015341165475547313690186e-02,1.000000000000000020816681711721685132943093776703e-02
4.600000000000002420286193682841258123517036437988e-01,1.861972347974193142672305611995398066937923431396e-02,-4.994387869036145954915184574929298833012580871582e-02,1.000000000000000020816681711721685132943093776703e-02
4.700000000000002509104035652853781357407569885254e-01,1.858538207927287744247735190583625808358192443848e-02,-4.994723645225550290316363089004880748689174652100e-02,1.000000000000000020816681711721685132943093776703e-02
4.800000000000002597921877622866304591298103332520e-01,1.855085424651777351034986907052370952442288398743e-02,-4.995078997291856753859562445541087072342634201050e-02,1.000000000000000020816681711721685132943093776703e-02
4.900000000000002686739719592878827825188636779785e-01,1.851613984610669949582018034561770036816596984863e-02,-4.995453932524040324691938508294697385281324386597e-02,1.000000000000000020816681711721685132943093776703e-02
5.000000000000002220446049250313080847263336181641e-01,1.848123874153175666412707300878537353128194808960e-02,-4.995848458316715784421901958012313116341829299927e-02,1.000000000000000020816681711721685132943093776703e-02
5.100000000000002309263891220325604081153869628906e-01,1.844615079514475702859854777670989278703927993774e-02,-4.996262582170114818769235398576711304485797882080e-02,1.000000000000000020816681711721685132943093776703e-02
5.200000000000002398081733190338127315044403076172e-01,1.841087586815490922953486574442649725824594497681e-02,-4.996696311690063119215210463153198361396789550781e-02,1.000000000000000020816681711721685132943093776703e-02
5.300000000000002486899575160350650548934936523438e-01,1.837541382062653216866721095357206650078296661377e-02,-4.997149654587953321316362575998937245458364486694e-02,1.000000000000000020816681711721685132943093776703e-02
5.400000000000002575717417130363173782825469970703e-01,1.833976451147677558251025686786306323483586311340e-02,-4.997622618680716555239484932826599106192588806152e-02,1.000000000000000020816681711721685132943093776703e-02
5.500000000000002664535259100375697016716003417969e-01,1.830392779847335449350254066303023137152194976807e-02,-4.998115211890790526849670527553826104849576950073e-02,1.000000000000000020816681711721685132943093776703e-02
5.600000000000002753353101070388220250606536865234e-01,1.826790353823229060004074142398167168721556663513e-02,-4.998627442246084129351402225438505411148071289062e-02,1.000000000000000020816681711721685132943093776703e-02
5.700000000000002842170943040400743484497070312500e-01,1.823169158621568142208957397087942808866500854492e-02,-4.999159317879941361040252445491205435246229171753e-02,1.000000000000000020816681711721685132943093776703e-02
5.800000000000002930988785010413266718387603759766e-01,1.819529179672946597734473073160188505426049232483e-02,-4.999710847031102467497021279996261000633239746094e-02,1.000000000000000020816681711721685132943093776703e-02
5.900000000000003019806626980425789952278137207031e-01,1.815870402292121474352448728950548684224486351013e-02,-5.000282038043659532666751488250156398862600326538e-02,1.000000000000000020816681711721685132943093776703e-02
6.000000000000003108624468950438313186168670654297e-01,1.812192811677791962066130793118645669892430305481e-02,-5.000872899367014151605914662468421738594770431519e-02,1.000000000000000020816681711721685132943093776703e-02
6.100000000000003197442310920450836420059204101562e-01,1.808496392912380817952211486954183783382177352905e-02,-5.001483439555826776556912705018476117402315139771e-02,1.000000000000000020816681711721685132943093776703e-02
6.200000000000003286260152890463359653949737548828e-01,1.804781130961817525726331723490147851407527923584e-02,-5.002113667269969532469531259266659617424011230469e-02,1.000000000000000020816681711721685132943093776703e-02
6.300000000000003375077994860475882887840270996094e-01,1.801047010675320067529803225170326186344027519226e-02,-5.002763591274470011960318061028374359011650085449e-02,1.000000000000000020816681711721685132943093776703e-02
6.400000000000003463895836830488406121730804443359e-01,1.797294016785181205997368181215279037132859230042e-02,-5.003433220439458539718913243632414378225803375244e-02,1.000000000000000020816681711721685132943093776703e-02
6.500000000000003552713678800500929355621337890625e-01,1.793522133906554072435568514265469275414943695068e-02,-5.004122563740107110241694954311242327094078063965e-02,1.000000000000000020816681711721685132943093776703e-02
6.600000000000003641531520770513452589511871337891e-01,1.789731346537238795835200733108649728819727897644e-02,-5.004831630256569019454815361314103938639163970947e-02,1.000000000000000020816681711721685132943093776703e-02
6.700000000000003730349362740525975823402404785156e-01,1.785921639057472254386027543660020455718040466309e-02,-5.005560429173915720779675098128791432827711105347e-02,1.000000000000000020816681711721685132943093776703e-02
6.800000000000003819167204710538499057292938232422e-01,1.782092995729716786157403873858129372820258140564e-02,-5.006308969782069517862055363366380333900451660156e-02,1.000000000000000020816681711721685132943093776703e-02
6.900000000000003907985046680551022291183471679688e-01,1.778245400698451328391769266090705059468746185303e-02,-5.007077261475732093964907676308939699083566665649e-02,1.000000000000000020816681711721685132943093776703e-02
7.000000000000003996802888650563545525074005126953e-01,1.774378837989963944576921051066165091469883918762e-02,-5.007865313754314429139924413902917876839637756348e-02,1.000000000000000020816681711721685132943093776703e-02
7.100000000000004085620730620576068758964538574219e-01,1.770493291512145045407677912407962139695882797241e-02,-5.008673136221860472394595831246988382190465927124e-02,1.000000000000000020816681711721685132943093776703e-02
7.200000000000004174438572590588591992855072021484e-01,1.766588745054281997526324232694605598226189613342e-02,-5.009500738586969426080486300634220242500305175781e-02,1.000000000000000020816681711721685132943093776703e-02
7.300000000000004263256414560601115226745605468750e-01,1.762665182286855120041835220945358742028474807739e-02,-5.010348130662714560834558596980059519410133361816e-02,1.000000000000000020816681711721685132943093776703e-02
7.400000000000004352074256530613638460636138916016e-01,1.758722586761334374938492430828773649409413337708e-02,-5.011215322366559254962936620358959771692752838135e-02,1.000000000000000020816681711721685132943093776703e-02
7.500000000000004440892098500626161694526672363281e-01,1.754760941909978139152670451039739418774843215942e-02,-5.012102323720270258267106555649661459028720855713e-02,1.000000000000000020816681711721685132943093776703e-02
7.600000000000004529709940470638684928417205810547e-01,1.750780231045632670539013986399368150159716606140e-02,-5.013009144849828874201946860011958051472902297974e-02,1.000000000000000020816681711721685132943093776703e-02
7.700000000000004618527782440651208162307739257812e-01,1.746780437361531920781310134316299809142947196960e-02,-5.013935795985336590918635124580760020762681961060e-02,1.000000000000000020816681711721685132943093776703e-02
7.800000000000004707345624410663731396198272705078e-01,1.742761543931100123860922224139358149841427803040e-02,-5.014882287460920712307554936160158831626176834106e-02,1.000000000000000020816681711721685132943093776703e-02
7.900000000000004796163466380676254630088806152344e-01,1.738723533707755078414614047233044402673840522766e-02,-5.015848629714636519594250785303302109241485595703e-02,1.000000000000000020816681711721685132943093776703e-02
8.000000000000004884981308350688777863979339599609e-01,1.734666389524712123981764477775868726894259452820e-02,-5.016834833288365269599040630055242218077182769775e-02,1.000000000000000020816681711721685132943093776703e-02
8.100000000000004973799150320701301097869873046875e-01,1.730590094094789158085667679642938310280442237854e-02,-5.017840908827709417439066896804433781653642654419e-02,1.000000000000000020816681711721685132943093776703e-02
8.200000000000005062616992290713824331760406494141e-01,1.726494630010213734983004485457058763131499290466e-02,-5.018866867081885757562176308965717907994985580444e-02,1.000000000000000020816681711721685132943093776703e-02
8.300000000000005151434834260726347565650939941406e-01,1.722379979742431205247399361724092159420251846313e-02,-5.019912718903614401444457371326279826462268829346e-02,1.000000000000000020816681711721685132943093776703e-02
8.400000000000005240252676230738870799541473388672e-01,1.718246125641912855352977373968315077945590019226e-02,-5.020978475249005673619606682223093230277299880981e-02,1.000000000000000020816681711721685132943093776703e-02
8.500000000000005329070518200751394033432006835938e-01,1.714093049937966822815482714759127702564001083374e-02,-5.022064147177444232150733682829013559967279434204e-02,1.000000000000000020816681711721685132943093776703e-02
8.600000000000005417888360170763917267322540283203e-01,1.709920734738549358278092427099181804805994033813e-02,-5.023169745851468331876432671379006933420896530151e-02,1.000000000000000020816681711721685132943093776703e-02
8.700000000000005506706202140776440501213073730469e-01,1.705729162030076781486620518535346491262316703796e-02,-5.024295282536648393767464426673541311174631118774e-02,1.000000000000000020816681711721685132943093776703e-02
8.800000000000005595524044110788963735103607177734e-01,1.701518313677239865877588442799606127664446830750e-02,-5.025440768601459329278924315076437778770923614502e-02,1.000000000000000020816681711721685132943093776703e-02
8.900000000000005684341886080801486968994140625000e-01,1.697288171422818570110990776811377145349979400635e-02,-5.026606215517154252481191178958397358655929565430e-02,1.000000000000000020816681711721685132943093776703e-02
