time,u0,u1,tau
0.000000000000000000000000000000000000000000000000e+00,4.999999999999998889776975374843459576368331909180e-02,0.000000000000000000000000000000000000000000000000e+00,1.000000000000000020816681711721685132943093776703e-02
1.000000000000000020816681711721685132943093776703e-02,4.999999993437499040682681084035721141844987869263e-02,1.500001861640694103268260650718701754158246330917e-05,1.000000000000000020816681711721685132943093776703e-02
2.000000000000000041633363423443370265886187553406e-02,5.000000745313454286744558885402511805295944213867e-02,3.000014885912444313645179583271982437508995644748e-05,1.000000000000000020816681711721685132943093776703e-02
2.999999999999999888977697537484345957636833190918e-02,5.000002266883635249072881379106547683477401733398e-02,4.500050308689595003706213072192099389212671667337e-05,1.000000000000000020816681711721685132943093776703e-02
4.000000000000000083266726846886740531772375106812e-02,5.000004569409660648560134177387226372957229614258e-02,6.000119367021384197361660861602672412118408828974e-05,1.000000000000000020816681711721685132943093776703e-02
5.000000000000000277555756156289135105907917022705e-02,5.000007664159028530903583487088326364755630493164e-02,7.500233299157456541041144593151557273813523352146e-05,1.000000000000000020816681711721685132943093776703e-02
6.000000000000000471844785465691529680043458938599e-02,5.000011562405146797738453301462868694216012954712e-02,9.000403344573374580812191725343041071027982980013e-05,1.000000000000000020816681711721685132943093776703e-02
7.000000000000000666133814775093924254179000854492e-02,5.000016275427365125549883373423654120415449142456e-02,1.050064074399613037831199835459017322136787697673e-04,1.000000000000000020816681711721685132943093776703e-02
8.000000000000000166533453693773481063544750213623e-02,5.000021814511006190695496798070962540805339813232e-02,1.200095673942964865634971949326370577182387933135e-04,1.000000000000000020816681711721685132943093776703e-02
8.999999999999999666933092612453037872910499572754e-02,5.000028190947396894427967595220252405852079391479e-02,1.350136257418028181299246570645777865138370543718e-04,1.000000000000000020816681711721685132943093776703e-02
9.999999999999999167332731531132594682276248931885e-02,5.000035416033900975696369073375535663217306137085e-02,1.500186949288229002787142807306963732116855680943e-04,1.000000000000000020816681711721685132943093776703e-02
1.099999999999999866773237044981215149164199829102e-01,5.000043501073947460611179849365726113319396972656e-02,1.650248874152330917121356268495446784072555601597e-04,1.000000000000000020816681711721685132943093776703e-02
1.199999999999999816813200936849170830100774765015e-01,5.000052457377065356913803384486527647823095321655e-02,1.800323156746978889731353179470829672936815768480e-04,1.000000000000000020816681711721685132943093776703e-02
1.299999999999999766853164828717126511037349700928e-01,5.000062296258913491220354785582458134740591049194e-02,1.950410921949241583022577328776492322504054754972e-04,1.000000000000000020816681711721685132943093776703e-02
1.399999999999999855671006798729649744927883148193e-01,5.000073029041311040154837996851711068302392959595e-02,2.100513294779150015763324876871820379165001213551e-04,1.000000000000000020816681711721685132943093776703e-02
1.499999999999999944488848768742172978818416595459e-01,5.000084667052271530929274945265206042677164077759e-02,2.250631400402234054067274193755565647734329104424e-04,1.000000000000000020816681711721685132943093776703e-02
1.600000000000000033306690738754696212708950042725e-01,5.000097221626031290808711560202937107533216476440e-02,2.400766364132054565567325754571470497467089444399e-04,1.000000000000000020816681711721685132943093776703e-02
1.700000000000000122124532708767219446599483489990e-01,5.000110704103084141580737309595861006528139114380e-02,2.550919311432732592033467700076698747579939663410e-04,1.000000000000000020816681711721685132943093776703e-02
1.800000000000000210942374678779742680490016937256e-01,5.000125125830209849020491219562245532870292663574e-02,2.701091367921473100979778969588096515508368611336e-04,1.000000000000000020816681711721685132943093776703e-02
1.900000000000000299760216648792265914380550384521e-01,5.000140498160506735692010238381044473499059677124e-02,2.851283659371084671513285613286825537215918302536e-04,1.000000000000000020816681711721685132943093776703e-02
2.000000000000000388578058618804789148271083831787e-01,5.000156832453424293749577600465272553265094757080e-02,3.001497311712495114424670283881368959555402398109e-04,1.000000000000000020816681711721685132943093776703e-02
2.100000000000000477395900588817312382161617279053e-01,5.000174140074793022181509627444029320031404495239e-02,3.151733451037260587065946815243933087913319468498e-04,1.000000000000000020816681711721685132943093776703e-02
2.200000000000000566213742558829835616052150726318e-01,5.000192432396855651832723310690198559314012527466e-02,3.301993203600069016166729252148570594727061688900e-04,1.000000000000000020816681711721685132943093776703e-02
2.300000000000000655031584528842358849942684173584e-01,5.000211720798300452095475066016661003232002258301e-02,3.452277695821238641740724695239350694464519619942e-04,1.000000000000000020816681711721685132943093776703e-02
2.400000000000000743849426498854882083833217620850e-01,5.000232016664291068153147534758318215608596801758e-02,3.602588054289208429475932504715274262707680463791e-04,1.000000000000000020816681711721685132943093776703e-02
2.500000000000000555111512312578270211815834045410e-01,5.000253331386497746002817166299792006611824035645e-02,3.752925405763024146316153561997452925425022840500e-04,1.000000000000000020816681711721685132943093776703e-02
2.600000000000000643929354282590793445706367492676e-01,5.000275676363129251367212191325961612164974212646e-02,3.903290877174814136121860919104165077442303299904e-04,1.000000000000000020816681711721685132943093776703e-02
2.700000000000000732747196252603316679596900939941e-01,5.000299062998963400827889813626825343817472457886e-02,4.053685595632260758522380506008175871102139353752e-04,1.000000000000000020816681711721685132943093776703e-02
2.800000000000000821565038222615839913487434387207e-01,5.000323502705380368515974964793713297694921493530e-02,4.204110688421060985746346982949717130395583808422e-04,1.000000000000000020816681711721685132943093776703e-02
2.900000000000000910382880192628363147377967834473e-01,5.000349006900391135577166323855635710060596466064e-02,4.354567283007382120542383407979514231556095182896e-04,1.000000000000000020816681711721685132943093776703e-02
3.000000000000000999200722162640886381268501281738e-01,5.000375587008669409083694290529820136725902557373e-02,4.505056507040305045774797321200821897946298122406e-04,1.000000000000000020816681711721685132943093776703e-02
3.100000000000001088018564132653409615159034729004e-01,5.000403254461584928725059739917924162000417709351e-02,4.655579488354261510907328158737072953954339027405e-04,1.000000000000000020816681711721685132943093776703e-02
3.200000000000001176836406102665932849049568176270e-01,5.000432020697231916273040042142383754253387451172e-02,4.806137354971461118566256054407404008088633418083e-04,1.000000000000000020816681711721685132943093776703e-02
3.300000000000001265654248072678456082940101623535e-01,5.000461897160460300604256644874112680554389953613e-02,4.956731235104309095385044514614492072723805904388e-04,1.000000000000000020816681711721685132943093776703e-02
3.400000000000001354472090042690979316830635070801e-01,5.000492895302908330501523437305877450853586196899e-02,5.107362257157811594523999509931400098139420151711e-04,1.000000000000000020816681711721685132943093776703e-02
3.500000000000001443289932012703502550721168518066e-01,5.000525026583032411897633551234321203082799911499e-02,5.258031549731975035077979896414035465568304061890e-04,1.000000000000000020816681711721685132943093776703e-02
3.600000000000001532107773982716025784611701965332e-01,5.000558302466137639008536552864825353026390075684e-02,5.408740241624189178451520554347098368452861905098e-04,1.000000000000000020816681711721685132943093776703e-02
3.700000000000001620925615952728549018502235412598e-01,5.000592734424409713245296416062046773731708526611e-02,5.559489461831604783723093099467860156437382102013e-04,1.000000000000000020816681711721685132943093776703e-02
3.800000000000001709743457922741072252392768859863e-01,5.000628333936943392679097541986266151070594787598e-02,5.710280339553494999976779311623431567568331956863e-04,1.000000000000000020816681711721685132943093776703e-02
3.900000000000001798561299892753595486283302307129e-01,5.000665112489776492621373904512438457459211349487e-02,5.861114004193605916612219708383690885966643691063e-04,1.000000000000000020816681711721685132943093776703e-02
4.000000000000001887379141862766118720173835754395e-01,5.000703081575916947310034288420865777879953384399e-02,6.011991585362498440037182234618740039877593517303e-04,1.000000000000000020816681711721685132943093776703e-02
4.100000000000001976196983832778641954064369201660e-01,5.000742252695375422710810653370572254061698913574e-02,6.162914212879870654721026212996548565570265054703e-04,1.000000000000000020816681711721685132943093776703e-02
4.200000000000002065014825802791165187954902648926e-01,5.000782637355195847650435325704165734350681304932e-02,6.313883016776876931641648837967295548878610134125e-04,1.000000000000000020816681711721685132943093776703e-02
4.300000000000002153832667772803688421845436096191e-01,5.000824247069484557171037408807023894041776657104e-02,6.464899127298421015880292017641295387875288724899e-04,1.000000000000000020816681711721685132943093776703e-02
4.400000000000002242650509742816211655735969543457e-01,5.000867093359440823663319974912155885249376296997e-02,6.615963674905448030014176730162489548092707991600e-04,1.000000000000000020816681711721685132943093776703e-02
4.500000000000002331468351712828734889626502990723e-01,5.000911187753386694110346866182226222008466720581e-02,6.767077790277213709263515184488824161235243082047e-04,1.000000000000000020816681711721685132943093776703e-02
4.600000000000002420286193682841258123517036437988e-01,5.000956541786798215110110277237254194915294647217e-02,6.918242604313541710414625640623853541910648345947e-04,1.000000000000000020816681711721685132943093776703e-02
4.700000000000002509104035652853781357407569885254e-01,5.001003167002335270119317556236637756228446960449e-02,7.069459248137067910316977403795135614927858114243e-04,1.000000000000000020816681711721685132943093776703e-02
4.800000000000002597921877622866304591298103332520e-01,5.001051074949868641139616443069826345890760421753e-02,7.220728853095467357145476050561683223349973559380e-04,1.000000000000000020816681711721685132943093776703e-02
4.900000000000002686739719592878827825188636779785e-01,5.001100277186514009297724214775371365249156951904e-02,7.372052550763663874427988886850471317302435636520e-04,1.000000000000000020816681711721685132943093776703e-02
5.000000000000002220446049250313080847263336181641e-01,5.001150785276658322642262533008761238306760787964e-02,7.523431472946029907253318036453038075705990195274e-04,1.000000000000000020816681711721685132943093776703e-02
5.100000000000002309263891220325604081153869628906e-01,5.001202610791990327276934635847283061593770980835e-02,7.674866751678562516031378848424537864048033952713e-04,1.000000000000000020816681711721685132943093776703e-02
5.200000000000002398081733190338127315044403076172e-01,5.001255765311529710714921748149208724498748779297e-02,7.826359519231047444029480963934020110173150897026e-04,1.000000000000000020816681711721685132943093776703e-02
5.300000000000002486899575160350650548934936523438e-01,5.001310260421657633012060273358656559139490127563e-02,7.977910908109205837673849615043764060828834772110e-04,1.000000000000000020816681711721685132943093776703e-02
5.400000000000002575717417130363173782825469970703e-01,5.001366107716143788453067031696264166384935379028e-02,8.129522051056820367009869698904367396607995033264e-04,1.000000000000000020816681711721685132943093776703e-02
5.500000000000002664535259100375697016716003417969e-01,5.001423318796176936684716451964050065726041793823e-02,8.281194081057846167331915054887758742552250623703e-04,1.000000000000000020816681711721685132943093776703e-02
5.600000000000002753353101070388220250606536865234e-01,5.001481905270393352180846591181762050837278366089e-02,8.432928131338503349376245488144832052057608962059e-04,1.000000000000000020816681711721685132943093776703e-02
5.700000000000002842170943040400743484497070312500e-01,5.001541878754905273707365154223225545138120651245e-02,8.584725335369349993874799054083268856629729270935e-04,1.000000000000000020816681711721685132943093776703e-02
5.800000000000002930988785010413266718387603759766e-01,5.001603250873330047676645904175529722124338150024e-02,8.736586826867335630469879603765548381488770246506e-04,1.000000000000000020816681711721685132943093776703e-02
5.900000000000003019806626980425789952278137207031e-01,5.001666033256817883723144291252538096159696578979e-02,8.888513739797838453596257046740447549382224678993e-04,1.000000000000000020816681711721685132943093776703e-02
6.000000000000003108624468950438313186168670654297e-01,5.001730237544080998057793863154074642807245254517e-02,9.040507208376677601713300447272558812983334064484e-04,1.000000000000000020816681711721685132943093776703e-02
6.100000000000003197442310920450836420059204101562e-01,5.001795875381421369043621893979434389621019363403e-02,9.192568367072111341908868809014165890403091907501e-04,1.000000000000000020816681711721685132943093776703e-02
6.200000000000003286260152890463359653949737548828e-01,5.001862958422759186660755403863731771707534790039e-02,9.344698350606809233651062207570703321835026144981e-04,1.000000000000000020816681711721685132943093776703e-02
6.300000000000003375077994860475882887840270996094e-01,5.001931498329659220303256006445735692977905273438e-02,9.496898293959806945305213154995271906955167651176e-04,1.000000000000000020816681711721685132943093776703e-02
6.400000000000003463895836830488406121730804443359e-01,5.002001506771360656022906709949893411248922348022e-02,9.649169332368438302405255768690039985813200473785e-04,1.000000000000000020816681711721685132943093776703e-02
6.500000000000003552713678800500929355621337890625e-01,5.002072995424802770436656373931327834725379943848e-02,9.801512601330245651881645230218964570667594671249e-04,1.000000000000000020816681711721685132943093776703e-02
6.600000000000003641531520770513452589511871337891e-01,5.002145975974654074081016119635023642331361770630e-02,9.953929236604871794852344990545134351123124361038e-04,1.000000000000000020816681711721685132943093776703e-02
6.700000000000003730349362740525975823402404785156e-01,5.002220460113337985319503786740824580192565917969e-02,1.010642037421592047755081189563952648313716053963e-03,1.000000000000000020816681711721685132943093776703e-02
6.800000000000003819167204710538499057292938232422e-01,5.002296459541060585918259562276944052428007125854e-02,1.025898715045280278762573900053212128113955259323e-03,1.000000000000000020816681711721685132943093776703e-02
6.900000000000003907985046680551022291183471679688e-01,5.002373985965837682732271218810637947171926498413e-02,1.041163070187256078219517618776990275364369153976e-03,1.000000000000000020816681711721685132943093776703e-02
7.000000000000003996802888650563545525074005126953e-01,5.002453051103521869391599352638877462595701217651e-02,1.056435216530165858983547622074183891527354717255e-03,1.000000000000000020816681711721685132943093776703e-02
7.100000000000004085620730620576068758964538574219e-01,5.002533666677826812430041059087670873850584030151e-02,1.071715267783775833373982599994178599445149302483e-03,1.000000000000000020816681711721685132943093776703e-02
7.200000000000004174438572590588591992855072021484e-01,5.002615844420356394639526342871249653398990631104e-02,1.087003337685147003402463816712497646221891045570e-03,1.000000000000000020816681711721685132943093776703e-02
7.300000000000004263256414560601115226745605468750e-01,5.002699596070629695088172184114228002727031707764e-02,1.102299539998806898397076814433148683747276663780e-03,1.000000000000000020816681711721685132943093776703e-02
7.400000000000004352074256530613638460636138916016e-01,5.002784933376106663027726995096600148826837539673e-02,1.117603988516920445264735128887423343257978558540e-03,1.000000000000000020816681711721685132943093776703e-02
7.500000000000004440892098500626161694526672363281e-01,5.002871868092213791801015076998737640678882598877e-02,1.132916797059456285104439565714073978597298264503e-03,1.000000000000000020816681711721685132943093776703e-02
7.600000000000004529709940470638684928417205810547e-01,5.002960411982369792749381076646386645734310150146e-02,1.148238079474352005618364991335056402022019028664e-03,1.000000000000000020816681711721685132943093776703e-02
7.700000000000004618527782440651208162307739257812e-01,5.003050576818011963009524833978503011167049407959e-02,1.163567949637676120916429667317970597650855779648e-03,1.000000000000000020816681711721685132943093776703e-02
7.800000000000004707345624410663731396198272705078e-01,5.003142374378619777752774666623736266046762466431e-02,1.178906521453787882916519613729633420007303357124e-03,1.000000000000000020816681711721685132943093776703e-02
7.900000000000004796163466380676254630088806152344e-01,5.003235816451741257981922217368264682590961456299e-02,1.194253908855493406457326521774575667222961783409e-03,1.000000000000000020816681711721685132943093776703e-02
8.000000000000004884981308350688777863979339599609e-01,5.003330914833016562770495738732279278337955474854e-02,1.209610225804199842847275192525557940825819969177e-03,1.000000000000000020816681711721685132943093776703e-02
8.100000000000004973799150320701301097869873046875e-01,5.003427681326202275391423768269305583089590072632e-02,1.224975586290067168168671507544331689132377505302e-03,1.000000000000000020816681711721685132943093776703e-02
8.200000000000005062616992290713824331760406494141e-01,5.003526127743197077224479585311200935393571853638e-02,1.240350104332155417932725960383777419338002800941e-03,1.000000000000000020816681711721685132943093776703e-02
8.300000000000005151434834260726347565650939941406e-01,5.003626265904064646106164104821800719946622848511e-02,1.255733893978571271213273696787382505135610699654e-03,1.000000000000000020816681711721685132943093776703e-02
8.400000000000005240252676230738870799541473388672e-01,5.003728107637057942458369552696240134537220001221e-02,1.271127069306610297971804612870982964523136615753e-03,1.000000000000000020816681711721685132943093776703e-02
8.500000000000005329070518200751394033432006835938e-01,5.003831664778642801527652750337438192218542098999e-02,1.286529744422896387456844990992976818233728408813e-03,1.000000000000000020816681711721685132943093776703e-02
8.600000000000005417888360170763917267322540283203e-01,5.003936949173521525624508399232581723481416702271e-02,1.301942033463518791358559667514782631769776344299e-03,1.000000000000000020816681711721685132943093776703e-02
8.700000000000005506706202140776440501213073730469e-01,5.004043972674655088583861584083933848887681961060e-02,1.317364050594165697516402246947109233587980270386e-03,1.000000000000000020816681711721685132943093776703e-02
8.800000000000005595524044110788963735103607177734e-01,5.004152747143286728004341057385317981243133544922e-02,1.332795910010254984701116853784697013907134532928e-03,1.000000000000000020816681711721685132943093776703e-02
8.900000000000005684341886080801486968994140625000e-01,5.004263284448964843598162133275764063000679016113e-02,1.348237725937061724790222427827757201157510280609e-03,1.000000000000000020816681711721685132943093776703e-02
