time,u0,u1,tau
0.000000000000000000000000000000000000000000000000e+00,-2.999999999999999888977697537484345957636833190918e-01,3.000000000000000444089209850062616169452667236328e-01,1.000000000000000020816681711721685132943093776703e-02
1.000000000000000020816681711721685132943093776703e-02,-2.977211185913616886544730277819326147437095642090e-01,3.020404279162514082912593949004076421260833740234e-01,1.000000000000000020816681711721685132943093776703e-02
2.000000000000000041633363423443370265886187553406e-02,-2.954273093869930755239749942120397463440895080566e-01,3.040647969941334682886235896148718893527984619141e-01,1.000000000000000020816681711721685132943093776703e-02
2.999999999999999888977697537484345957636833190918e-02,-2.931186973778640569854303521424299106001853942871e-01,3.060730457008436489196867569262394681572914123535e-01,1.000000000000000020816681711721685132943093776703e-02
4.000000000000000083266726846886740531772375106812e-02,-2.907954073263721572750739596813218668103218078613e-01,3.080651139485209855095604325470048934221267700195e-01,1.000000000000000020816681711721685132943093776703e-02
5.000000000000000277555756156289135105907917022705e-02,-2.884575637379698798135052584257209673523902893066e-01,3.100409430754943462815731436421629041433334350586e-01,1.000000000000000020816681711721685132943093776703e-02
6.000000000000000471844785465691529680043458938599e-02,-2.861052908332510358313527376594720408320426940918e-01,3.120004758268020150779875621083192527294158935547e-01,1.000000000000000020816681711721685132943093776703e-02
7.000000000000000666133814775093924254179000854492e-02,-2.837387125205119153825705780036514624953269958496e-01,3.139436563339942920514147317589959129691123962402e-01,1.000000000000000020816681711721685132943093776703e-02
8.000000000000000166533453693773481063544750213623e-02,-2.813579523688023442673511453904211521148681640625e-01,3.158704300942308806909863960754591971635818481445e-01,1.000000000000000020816681711721685132943093776703e-02
8.999999999999999666933092612453037872910499572754e-02,-2.789631335814816148754857749736402183771133422852e-01,3.177807439486846075027415281510911881923675537109e-01,1.000000000000000020816681711721685132943093776703e-02
9.999999999999999167332731531132594682276248931885e-02,-2.765543789702945565167624408786650747060775756836e-01,3.196745460602640753755565583560382947325706481934e-01,1.000000000000000020816681711721685132943093776703e-02
1.099999999999999866773237044981215149164199829102e-01,-2.741318109299811789369982761854771524667739868164e-01,3.215517858906679071751000265066977590322494506836e-01,1.000000000000000020816681711721685132943093776703e-02
1.199999999999999816813200936849170830100774765015e-01,-2.716955514134349325416906140162609517574310302734e-01,3.234124141767831805971411540667759254574775695801e-01,1.000000000000000020816681711721685132943093776703e-02
1.299999999999999766853164828717126511037349700928e-01,-2.692457219074227414701283578324364498257637023926e-01,3.252563829064411549119029132270952686667442321777e-01,1.000000000000000020816681711721685132943093776703e-02
1.399999999999999855671006798729649744927883148193e-01,-2.667824434088806317966202641400741413235664367676e-01,3.270836452935442228984186385787324979901313781738e-01,1.000000000000000020816681711721685132943093776703e-02
1.499999999999999944488848768742172978818416595459e-01,-2.643058364017977224236233269039075821638107299805e-01,3.288941557525769110448266019375296309590339660645e-01,1.000000000000000020816681711721685132943093776703e-02
1.600000000000000033306690738754696212708950042725e-01,-2.618160208347018458319155342906014993786811828613e-01,3.306878698725154719362251398706575855612754821777e-01,1.000000000000000020816681711721685132943093776703e-02
1.700000000000000122124532708767219446599483489990e-01,-2.593131160987587890964789494319120422005653381348e-01,3.324647443901498355955936858663335442543029785156e-01,1.000000000000000020816681711721685132943093776703e-02
1.800000000000000210942374678779742680490016937256e-01,-2.567972410064978672217250732501270249485969543457e-01,3.342247371628324081882510654395446181297302246094e-01,1.000000000000000020816681711721685132943093776703e-02
1.900000000000000299760216648792265914380550384521e-01,-2.542685137711753196043673597159795463085174560547e-01,3.359678071406679844557174874353222548961639404297e-01,1.000000000000000020816681711721685132943093776703e-02
2.000000000000000388578058618804789148271083831787e-01,-2.517270519867870204322457539092283695936203002930e-01,3.376939143381598174009639024006901308894157409668e-01,1.000000000000000020816681711721685132943093776703e-02
2.100000000000000477395900588817312382161617279053e-01,-2.491729726087419105606812763653579168021678924561e-01,3.394030198053265556801250113494461402297019958496e-01,1.000000000000000020816681711721685132943093776703e-02
2.200000000000000566213742558829835616052150726318e-01,-2.466063919352070310520019802424940280616283416748e-01,3.410950855983050367115083645330742001533508300781e-01,1.000000000000000020816681711721685132943093776703e-02
2.300000000000000655031584528842358849942684173584e-01,-2.440274255891345112079449108932749368250370025635e-01,3.427700747494544786242443024093518033623695373535e-01,1.000000000000000020816681711721685132943093776703e-02
2.400000000000000743849426498854882083833217620850e-01,-2.414361885009810027025167755709844641387462615967e-01,3.444279512369770035462579471641220152378082275391e-01,1.000000000000000020816681711721685132943093776703e-02
2.500000000000000555111512312578270211815834045410e-01,-2.388327948921291910000519465029356069862842559814e-01,3.460686799540704239319666157825849950313568115234e-01,1.000000000000000020816681711721685132943093776703e-02
2.600000000000000643929354282590793445706367492676e-01,-2.362173582590212650433869612243142910301685333252e-01,3.476922266776289460743498693773290142416954040527e-01,1.000000000000000020816681711721685132943093776703e-02
2.700000000000000732747196252603316679596900939941e-01,-2.335899913580135045521046777139417827129364013672e-01,3.492985580365069453456783321598777547478675842285e-01,1.000000000000000020816681711721685132943093776703e-02
2.800000000000000821565038222615839913487434387207e-01,-2.309508061909609777373475480999331921339035034180e-01,3.508876414793627995791780449508223682641983032227e-01,1.000000000000000020816681711721685132943093776703e-02
2.900000000000000910382880192628363147377967834473e-01,-2.282999139915408981504896246406133286654949188232e-01,3.524594452420975465578578678105259314179420471191e-01,1.000000000000000020816681711721685132943093776703e-02
3.000000000000000999200722162640886381268501281738e-01,-2.256374252123232726496837585727917030453681945801e-01,3.540139383149056295785328529746038839221000671387e-01,1.000000000000000020816681711721685132943093776703e-02
3.100000000000001088018564132653409615159034729004e-01,-2.229634495125966120454563679231796413660049438477e-01,3.555510904089529411464809527387842535972595214844e-01,1.000000000000000020816681711721685132943093776703e-02
3.200000000000001176836406102665932849049568176270e-01,-2.202780957469566702755514597811270505189895629883e-01,3.570708719226990401907073646725621074438095092773e-01,1.000000000000000020816681711721685132943093776703e-02
3.300000000000001265654248072678456082940101623535e-01,-2.175814719546655118254108174369321204721927642822e-01,3.585732539078797520559760414471384137868881225586e-01,1.000000000000000020816681711721685132943093776703e-02
3.400000000000001354472090042690979316830635070801e-01,-2.148736853497881793551016471610637381672859191895e-01,3.600582080351662495054654300474794581532478332520e-01,1.000000000000000020816681711721685132943093776703e-02
3.500000000000001443289932012703502550721168518066e-01,-2.121548423121137616487175137081067077815532684326e-01,3.615257065595174901240227427479112520813941955566e-01,1.000000000000000020816681711721685132943093776703e-02
3.600000000000001532107773982716025784611701965332e-01,-2.094250483788675787355515467424993403255939483643e-01,3.629757222852421083558738246210850775241851806641e-01,1.000000000000000020816681711721685132943093776703e-02
3.700000000000001620925615952728549018502235412598e-01,-2.066844082372206736764042034337762743234634399414e-01,3.644082285307868041002166137332096695899963378906e-01,1.000000000000000020816681711721685132943093776703e-02
3.800000000000001709743457922741072252392768859863e-01,-2.039330257176027172416610255822888575494289398193e-01,3.658231990932672150762527962797321379184722900391e-01,1.000000000000000020816681711721685132943093776703e-02
3.900000000000001798561299892753595486283302307129e-01,-2.011710037878240431297172108315862715244293212891e-01,3.672206082127583703922368840721901506185531616211e-01,1.000000000000000020816681711721685132943093776703e-02
4.000000000000001887379141862766118720173835754395e-01,-1.983984445480123925964477393790730275213718414307e-01,3.686004305363610455970047041773796081542968750000e-01,1.000000000000000020816681711721685132943093776703e-02
4.100000000000001976196983832778641954064369201660e-01,-1.956154492263695865439387944206828251481056213379e-01,3.699626410820608946039556030882522463798522949219e-01,1.000000000000000020816681711721685132943093776703e-02
4.200000000000002065014825802791165187954902648926e-01,-1.928221181757530100497888270183466374874114990234e-01,3.713072152023968452994040490011684596538543701172e-01,1.000000000000000020816681711721685132943093776703e-02
4.300000000000002153832667772803688421845436096191e-01,-1.900185508710869053405900785946869291365146636963e-01,3.726341285479556342252749345789197832345962524414e-01,1.000000000000000020816681711721685132943093776703e-02
4.400000000000002242650509742816211655735969543457e-01,-1.872048459076077475682353679076186381280422210693e-01,3.739433570307088561257558012584922835230827331543e-01,1.000000000000000020816681711721685132943093776703e-02
4.500000000000002331468351712828734889626502990723e-01,-1.843811009999479499921193337286240421235561370850e-01,3.752348767872096257924852125142933800816535949707e-01,1.000000000000000020816681711721685132943093776703e-02
4.600000000000002420286193682841258123517036437988e-01,-1.815474129820622006814545557062956504523754119873e-01,3.765086641416651724867392658779863268136978149414e-01,1.000000000000000020816681711721685132943093776703e-02
4.700000000000002509104035652853781357407569885254e-01,-1.787038778079998446735032757715089246630668640137e-01,3.777646955689022423285905460943467915058135986328e-01,1.000000000000000020816681711721685132943093776703e-02
4.800000000000002597921877622866304591298103332520e-01,-1.758505905535271696127352925032027997076511383057e-01,3.790029476572419619984088967612478882074356079102e-01,1.000000000000000020816681711721685132943093776703e-02
4.900000000000002686739719592878827825188636779785e-01,-1.729876454186029532955615195533027872443199157715e-01,3.802233970713008170960733878018800169229507446289e-01,1.000000000000000020816681711721685132943093776703e-02
5.000000000000002220446049250313080847263336181641e-01,-1.701151357307102429672340804245322942733764648438e-01,3.814260205147341764586599310860037803649902343750e-01,1.000000000000000020816681711721685132943093776703e-02
