time,u0,u1,tau
0.000000000000000000000000000000000000000000000000e+00,3.500000000000000888178419700125232338905334472656e-01,-9.999999999999997779553950749686919152736663818359e-02,1.000000000000000020816681711721685132943093776703e-02
1.000000000000000020816681711721685132943093776703e-02,3.494280029345566696008518192684277892112731933594e-01,-1.017167217311200633211853983084438368678092956543e-01,1.000000000000000020816681711721685132943093776703e-02
2.000000000000000041633363423443370265886187553406e-02,3.488460867513539787054810403787996619939804077148e-01,-1.034302947469862704599208313993585761636495590210e-01,1.000000000000000020816681711721685132943093776703e-02
2.999999999999999888977697537484345957636833190918e-02,3.482542685666695780888346689607715234160423278809e-01,-1.051406710567422408963977886742213740944862365723e-01,1.000000000000000020816681711721685132943093776703e-02
4.000000000000000083266726846886740531772375106812e-02,3.476525659726761308121467664022929966449737548828e-01,-1.068478029035338505714491930120857432484626770020e-01,1.000000000000000020816681711721685132943093776703e-02
5.000000000000000277555756156289135105907917022705e-02,3.470409970332842819473739837121684104204177856445e-01,-1.085516427720612936402844184158311691135168075562e-01,1.000000000000000020816681711721685132943093776703e-02
6.000000000000000471844785465691529680043458938599e-02,3.464195802798312739945174598688026890158653259277e-01,-1.102521433960464980472693241608794778585433959961e-01,1.000000000000000020816681711721685132943093776703e-02
7.000000000000000666133814775093924254179000854492e-02,3.457883347066174617445710737229092046618461608887e-01,-1.119492577656126808260950156181934289634227752686e-01,1.000000000000000020816681711721685132943093776703e-02
8.000000000000000166533453693773481063544750213623e-02,3.451472797662917257888182120950659736990928649902e-01,-1.136429391345728096007761109831335488706827163696e-01,1.000000000000000020816681711721685132943093776703e-02
8.999999999999999666933092612453037872910499572754e-02,3.444964353650886712543410794751252979040145874023e-01,-1.153331410276240143186754494308843277394771575928e-01,1.000000000000000020816681711721685132943093776703e-02
9.999999999999999167332731531132594682276248931885e-02,3.438358218579187774999184057378442957997322082520e-01,-1.170198172474446879354204043011122848838567733765e-01,1.000000000000000020816681711721685132943093776703e-02
1.099999999999999866773237044981215149164199829102e-01,3.431654600433137747295120334456441923975944519043e-01,-1.187029218816913339606955446470237802714109420776e-01,1.000000000000000020816681711721685132943093776703e-02
1.199999999999999816813200936849170830100774765015e-01,3.424853711582294124582404037937521934509277343750e-01,-1.203824093098921771405329650406201835721731185913e-01,1.000000000000000020816681711721685132943093776703e-02
1.299999999999999766853164828717126511037349700928e-01,3.417955768727075627211320352216716855764389038086e-01,-1.220582342102345535517216035259480122476816177368e-01,1.000000000000000020816681711721685132943093776703e-02
1.399999999999999855671006798729649744927883148193e-01,3.410960992844001005153131700353696942329406738281e-01,-1.237303515662432212840471379422524478286504745483e-01,1.000000000000000020816681711721685132943093776703e-02
1.499999999999999944488848768742172978818416595459e-01,3.403869609129561157878640642593381926417350769043e-01,-1.253987166733466773749228195811156183481216430664e-01,1.000000000000000020816681711721685132943093776703e-02
1.600000000000000033306690738754696212708950042725e-01,3.396681846942757876384177961881505325436592102051e-01,-1.270632851453288303389399516163393855094909667969e-01,1.000000000000000020816681711721685132943093776703e-02
1.700000000000000122124532708767219446599483489990e-01,3.389397939746323640264336063410155475139617919922e-01,-1.287240129206630723235349478272837586700916290283e-01,1.000000000000000020816681711721685132943093776703e-02
1.800000000000000210942374678779742680490016937256e-01,3.382018125046649670295551004528533667325973510742e-01,-1.303808562687263084001187962712720036506652832031e-01,1.000000000000000020816681711721685132943093776703e-02
1.900000000000000299760216648792265914380550384521e-01,3.374542644332447771660099533619359135627746582031e-01,-1.320337717958900980441683259414276108145713806152e-01,1.000000000000000020816681711721685132943093776703e-02
2.000000000000000388578058618804789148271083831787e-01,3.366971743012167617159491328493459150195121765137e-01,-1.336827164514863552913226385499001480638980865479e-01,1.000000000000000020816681711721685132943093776703e-02
2.100000000000000477395900588817312382161617279053e-01,3.359305670350198336215896688372595235705375671387e-01,-1.353276475336452344677695691643748432397842407227e-01,1.000000000000000020816681711721685132943093776703e-02
2.200000000000000566213742558829835616052150726318e-01,3.351544679401878279456639120326144620776176452637e-01,-1.369685226950026202263899222089094109833240509033e-01,1.000000000000000020816681711721685132943093776703e-02
2.300000000000000655031584528842358849942684173584e-01,3.343689026947336828676782261027256026864051818848e-01,-1.386052999482747238868540762268821708858013153076e-01,1.000000000000000020816681711721685132943093776703e-02
2.400000000000000743849426498854882083833217620850e-01,3.335738973424201003759037575946422293782234191895e-01,-1.402379376716976766559241696086246520280838012695e-01,1.000000000000000020816681711721685132943093776703e-02
2.500000000000000555111512312578270211815834045410e-01,3.327694782859186850565436088800197467207908630371e-01,-1.418663946143295107038539981658686883747577667236e-01,1.000000000000000020816681711721685132943093776703e-02
2.600000000000000643929354282590793445706367492676e-01,3.319556722798608361379990583373000845313072204590e-01,-1.434906299012126129621691461579757742583751678467e-01,1.000000000000000020816681711721685132943093776703e-02
2.700000000000000732747196252603316679596900939941e-01,3.311325064237827797697377718577627092599868774414e-01,-1.451106030383943479300512535701273009181022644043e-01,1.000000000000000020816681711721685132943093776703e-02
2.800000000000000821565038222615839913487434387207e-01,3.303000081549678501602329561137594282627105712891e-01,-1.467262739178035735321259380725678056478500366211e-01,1.000000000000000020816681711721685132943093776703e-02
2.900000000000000910382880192628363147377967834473e-01,3.294582052411886841092325539648300036787986755371e-01,-1.483376028219813846931174339260905981063842773438e-01,1.000000000000000020816681711721685132943093776703e-02
3.000000000000000999200722162640886381268501281738e-01,3.286071257733522155142225074087036773562431335449e-01,-1.499445504286636698942913881182903423905372619629e-01,1.000000000000000020816681711721685132943093776703e-02
3.100000000000001088018564132653409615159034729004e-01,3.277467981580504674532505759998457506299018859863e-01,-1.515470778152139541550269541403395123779773712158e-01,1.000000000000000020816681711721685132943093776703e-02
3.200000000000001176836406102665932849049568176270e-01,3.268772511100200284239747361425543203949928283691e-01,-1.531451464629044467713470112357754260301589965820e-01,1.000000000000000020816681711721685132943093776703e-02
3.300000000000001265654248072678456082940101623535e-01,3.259985136445130438076489554077852517366409301758e-01,-1.547387182610434896989914932419196702539920806885e-01,1.000000000000000020816681711721685132943093776703e-02
3.400000000000001354472090042690979316830635070801e-01,3.251106150695830532271202173433266580104827880859e-01,-1.563277555109478522687993518047733232378959655762e-01,1.000000000000000020816681711721685132943093776703e-02
3.500000000000001443289932012703502550721168518066e-01,3.242135849782881718006422033795388415455818176270e-01,-1.579122209297580958775597537169232964515686035156e-01,1.000000000000000020816681711721685132943093776703e-02
3.600000000000001532107773982716025784611701965332e-01,3.233074532408152790274868948472430929541587829590e-01,-1.594920776540954543420980371593032032251358032227e-01,1.000000000000000020816681711721685132943093776703e-02
3.700000000000001620925615952728549018502235412598e-01,3.223922499965275467737058079364942386746406555176e-01,-1.610672892435586478487863359987386502325534820557e-01,1.000000000000000020816681711721685132943093776703e-02
3.800000000000001709743457922741072252392768859863e-01,3.214680056459391921386270496441284194588661193848e-01,-1.626378196840592704752737063245149329304695129395e-01,1.000000000000000020816681711721685132943093776703e-02
3.900000000000001798561299892753595486283302307129e-01,3.205347508426196201369862137653399258852005004883e-01,-1.642036333909943079945037425204645842313766479492e-01,1.000000000000000020816681711721685132943093776703e-02
4.000000000000001887379141862766118720173835754395e-01,3.195925164850310085107309987506596371531486511230e-01,-1.657646952122544259378145170558127574622631072998e-01,1.000000000000000020816681711721685132943093776703e-02
4.100000000000001976196983832778641954064369201660e-01,3.186413337083017216500024915148969739675521850586e-01,-1.673209704310669176940962188382400199770927429199e-01,1.000000000000000020816681711721685132943093776703e-02
4.200000000000002065014825802791165187954902648926e-01,3.176812338759391618481231489568017423152923583984e-01,-1.688724247686718693550744774256600067019462585449e-01,1.000000000000000020816681711721685132943093776703e-02
4.300000000000002153832667772803688421845436096191e-01,3.167122485714846669146993463073158636689186096191e-01,-1.704190243868307919061777511160471476614475250244e-01,1.000000000000000020816681711721685132943093776703e-02
4.400000000000002242650509742816211655735969543457e-01,3.157344095901144509497271428699605166912078857422e-01,-1.719607358901661386951786880672443658113479614258e-01,1.000000000000000020816681711721685132943093776703e-02
4.500000000000002331468351712828734889626502990723e-01,3.147477489301888087247505154664395377039909362793e-01,-1.734975263283313196005508416419615969061851501465e-01,1.000000000000000020816681711721685132943093776703e-02
4.600000000000002420286193682841258123517036437988e-01,3.137522987847533584293557851196965202689170837402e-01,-1.750293631980098518763355741612031124532222747803e-01,1.000000000000000020816681711721685132943093776703e-02
4.700000000000002509104035652853781357407569885254e-01,3.127480915329953203851687248970847576856613159180e-01,-1.765562144447429537841287583432858809828758239746e-01,1.000000000000000020816681711721685132943093776703e-02
4.800000000000002597921877622866304591298103332520e-01,3.117351597316580513741257618676172569394111633301e-01,-1.780780484645847205893431919321301393210887908936e-01,1.000000000000000020816681711721685132943093776703e-02
4.900000000000002686739719592878827825188636779785e-01,3.107135361064168876943369923537829890847206115723e-01,-1.795948341055843833213856441943789832293987274170e-01,1.000000000000000020816681711721685132943093776703e-02
5.000000000000002220446049250313080847263336181641e-01,3.096832535432194055680099609162425622344017028809e-01,-1.811065406690946788526019872733741067349910736084e-01,1.000000000000000020816681711721685132943093776703e-02
