time,u0,u1,tau
0.000000000000000000000000000000000000000000000000e+00,4.000000000000000222044604925031308084726333618164e-01,-4.000000000000000222044604925031308084726333618164e-01,1.000000000000000020816681711721685132943093776703e-02
1.000000000000000020816681711721685132943093776703e-02,3.947035952975839756540210601087892428040504455566e-01,-4.049369853160850185602726014622021466493606567383e-01,1.000000000000000020816681711721685132943093776703e-02
2.000000000000000041633363423443370265886187553406e-02,3.893453493026586276215539328404702246189117431641e-01,-4.098050012797048724522142038040328770875930786133e-01,1.000000000000000020816681711721685132943093776703e-02
2.999999999999999888977697537484345957636833190918e-02,3.839262016205695071668912987661315128207206726074e-01,-4.146034085002559543831068822328234091401100158691e-01,1.000000000000000020816681711721685132943093776703e-02
4.000000000000000083266726846886740531772375106812e-02,3.784470954958541466517374374234350398182868957520e-01,-4.193315837074312324439517851715208962559700012207e-01,1.000000000000000020816681711721685132943093776703e-02
5.000000000000000277555756156289135105907917022705e-02,3.729089774685958036393174097611336037516593933105e-01,-4.239889196554886274803664036880945786833763122559e-01,1.000000000000000020816681711721685132943093776703e-02
6.000000000000000471844785465691529680043458938599e-02,3.673127970361049765557481805444695055484771728516e-01,-4.285748250146040327912544398714089766144752502441e-01,1.000000000000000020816681711721685132943093776703e-02
7.000000000000000666133814775093924254179000854492e-02,3.616595063203038029620017823617672547698020935059e-01,-4.330887242494197431064151260216021910309791564941e-01,1.000000000000000020816681711721685132943093776703e-02
8.000000000000000166533453693773481063544750213623e-02,3.559500597411936473335458686051424592733383178711e-01,-4.375300574849167456470411252666963264346122741699e-01,1.000000000000000020816681711721685132943093776703e-02
8.999999999999999666933092612453037872910499572754e-02,3.501854136967897379584258032991783693432807922363e-01,-4.418982803597575337306579967844299972057342529297e-01,1.000000000000000020816681711721685132943093776703e-02
9.999999999999999167332731531132594682276248931885e-02,3.443665262499096546555676923162536695599555969238e-01,-4.461928638672640334839059050864307209849357604980e-01,1.000000000000000020816681711721685132943093776703e-02
1.099999999999999866773237044981215149164199829102e-01,3.384943568222059662176093297603074461221694946289e-01,-4.504132941842151072187050431239185854792594909668e-01,1.000000000000000020816681711721685132943093776703e-02
1.199999999999999816813200936849170830100774765015e-01,3.325698658958345932390443522308487445116043090820e-01,-4.545590724876669708187648666353197768330574035645e-01,1.000000000000000020816681711721685132943093776703e-02
1.299999999999999766853164828717126511037349700928e-01,3.265940147231517487469432126090396195650100708008e-01,-4.586297147600206791651089588413015007972717285156e-01,1.000000000000000020816681711721685132943093776703e-02
1.399999999999999855671006798729649744927883148193e-01,3.205677650448333637633879789063939824700355529785e-01,-4.626247515825799849764621285430621355772018432617e-01,1.000000000000000020816681711721685132943093776703e-02
1.499999999999999944488848768742172978818416595459e-01,3.144920788168097947057333385600941255688667297363e-01,-4.665437279178648588562339227792108431458473205566e-01,1.000000000000000020816681711721685132943093776703e-02
1.600000000000000033306690738754696212708950042725e-01,3.083679179464081654415963384963106364011764526367e-01,-4.703862028809653317296124441782012581825256347656e-01,1.000000000000000020816681711721685132943093776703e-02
1.700000000000000122124532708767219446599483489990e-01,3.021962440380915326798572095867712050676345825195e-01,-4.741517495002426363370773287897463887929916381836e-01,1.000000000000000020816681711721685132943093776703e-02
1.800000000000000210942374678779742680490016937256e-01,2.959780181491824535555679176468402147293090820312e-01,-4.778399544677045529539327617385424673557281494141e-01,1.000000000000000020816681711721685132943093776703e-02
1.900000000000000299760216648792265914380550384521e-01,2.897142005559525390623321072780527174472808837891e-01,-4.814504178794038469213489861431298777461051940918e-01,1.000000000000000020816681711721685132943093776703e-02
2.000000000000000388578058618804789148271083831787e-01,2.834057505304569124504610044823493808507919311523e-01,-4.849827529662290581669026323652360588312149047852e-01,1.000000000000000020816681711721685132943093776703e-02
2.100000000000000477395900588817312382161617279053e-01,2.770536261284842205476763865590328350663185119629e-01,-4.884365858154781636635277664026943966746330261230e-01,1.000000000000000020816681711721685132943093776703e-02
2.200000000000000566213742558829835616052150726318e-01,2.706587839889873503551598332705907523632049560547e-01,-4.918115550836262839240475841506849974393844604492e-01,1.000000000000000020816681711721685132943093776703e-02
2.300000000000000655031584528842358849942684173584e-01,2.642221791453517321102140158473048359155654907227e-01,-4.951073117007190327321097811363870278000831604004e-01,1.000000000000000020816681711721685132943093776703e-02
2.400000000000000743849426498854882083833217620850e-01,2.577447648488481179995801539917010813951492309570e-01,-4.983235185668433708805480364389950409531593322754e-01,1.000000000000000020816681711721685132943093776703e-02
2.500000000000000555111512312578270211815834045410e-01,2.512274924046079549455612323072273284196853637695e-01,-5.014598502411478087026353023247793316841125488281e-01,1.000000000000000020816681711721685132943093776703e-02
2.600000000000000643929354282590793445706367492676e-01,2.446713110204475349895858471427345648407936096191e-01,-5.045159926239022318839033687254413962364196777344e-01,1.000000000000000020816681711721685132943093776703e-02
2.700000000000000732747196252603316679596900939941e-01,2.380771676688553939449377594428369775414466857910e-01,-5.074916426321085527462173558888025581836700439453e-01,1.000000000000000020816681711721685132943093776703e-02
2.800000000000000821565038222615839913487434387207e-01,2.314460069624440785585051116868271492421627044678e-01,-5.103865078691889323181385407224297523498535156250e-01,1.000000000000000020816681711721685132943093776703e-02
2.900000000000000910382880192628363147377967834473e-01,2.247787710431536079003222994288080371916294097900e-01,-5.132003062892983580312034064263571053743362426758e-01,1.000000000000000020816681711721685132943093776703e-02
3.000000000000000999200722162640886381268501281738e-01,2.180763994854789944444206639673211611807346343994e-01,-5.159327658568244601156038697808980941772460937500e-01,1.000000000000000020816681711721685132943093776703e-02
3.100000000000001088018564132653409615159034729004e-01,2.113398292139778145148909516137791797518730163574e-01,-5.185836242016539365806693240301683545112609863281e-01,1.000000000000000020816681711721685132943093776703e-02
3.200000000000001176836406102665932849049568176270e-01,2.045699944352977195372034202591748908162117004395e-01,-5.211526282708005552990471187513321638107299804688e-01,1.000000000000000020816681711721685132943093776703e-02
3.300000000000001265654248072678456082940101623535e-01,1.977678265849452388103202338243136182427406311035e-01,-5.236395339770048007466130002285353839397430419922e-01,1.000000000000000020816681711721685132943093776703e-02
3.400000000000001354472090042690979316830635070801e-01,1.909342542889994609467407826741691678762435913086e-01,-5.260441058449287776710434627602808177471160888672e-01,1.000000000000000020816681711721685132943093776703e-02
3.500000000000001443289932012703502550721168518066e-01,1.840702033409540305797236214857548475265502929688e-01,-5.283661166555844168613020883640274405479431152344e-01,1.000000000000000020816681711721685132943093776703e-02
3.600000000000001532107773982716025784611701965332e-01,1.771765966938513847672709289327031001448631286621e-01,-5.306053470896439083759332788758911192417144775391e-01,1.000000000000000020816681711721685132943093776703e-02
3.700000000000001620925615952728549018502235412598e-01,1.702543544678519205071154374309116974472999572754e-01,-5.327615853702930559521178111026529222726821899414e-01,1.000000000000000020816681711721685132943093776703e-02
3.800000000000001709743457922741072252392768859863e-01,1.633043939733590799168183593792491592466831207275e-01,-5.348346269063007918376229099521879106760025024414e-01,1.000000000000000020816681711721685132943093776703e-02
3.900000000000001798561299892753595486283302307129e-01,1.563276297497991351725943331985035911202430725098e-01,-5.368242739359837534252051227667834609746932983398e-01,1.000000000000000020816681711721685132943093776703e-02
4.000000000000001887379141862766118720173835754395e-01,1.493249736201314459282940561024588532745838165283e-01,-5.387303351727584788122271675092633813619613647461e-01,1.000000000000000020816681711721685132943093776703e-02
4.100000000000001976196983832778641954064369201660e-01,1.422973347611414807190044484741520136594772338867e-01,-5.405526254529763319212065653118770569562911987305e-01,1.000000000000000020816681711721685132943093776703e-02
4.200000000000002065014825802791165187954902648926e-01,1.352456197895442746581551318740821443498134613037e-01,-5.422909653867481472033773570728953927755355834961e-01,1.000000000000000020816681711721685132943093776703e-02
4.300000000000002153832667772803688421845436096191e-01,1.281707328639019316529612524391268379986286163330e-01,-5.439451810124669162149757539737038314342498779297e-01,1.000000000000000020816681711721685132943093776703e-02
4.400000000000002242650509742816211655735969543457e-01,1.210735758023326336108027589943958446383476257324e-01,-5.455151034557447209394354104006197303533554077148e-01,1.000000000000000020816681711721685132943093776703e-02
4.500000000000002331468351712828734889626502990723e-01,1.139550482159638472579032963949430268257856369019e-01,-5.470005685934830053085420331626664847135543823242e-01,1.000000000000000020816681711721685132943093776703e-02
4.600000000000002420286193682841258123517036437988e-01,1.068160476580552326053563660934742074459791183472e-01,-5.484014167237983850000659913348499685525894165039e-01,1.000000000000000020816681711721685132943093776703e-02
4.700000000000002509104035652853781357407569885254e-01,9.965746978869065297867990693703177385032176971436e-02,-5.497174922425271947901137536973692476749420166016e-01,1.000000000000000020816681711721685132943093776703e-02
4.800000000000002597921877622866304591298103332520e-01,9.248020855491148606297713286039652302861213684082e-02,-5.509486433270350813629079311795067042112350463867e-01,1.000000000000000020816681711721685132943093776703e-02
4.900000000000002686739719592878827825188636779785e-01,8.528515638613579086246829774609068408608436584473e-02,-5.520947216280562841461687639821320772171020507812e-01,1.000000000000000020816681711721685132943093776703e-02
5.000000000000002220446049250313080847263336181641e-01,7.807320440468008826417900536398519761860370635986e-02,-5.531555819702872467402698930527549237012863159180e-01,1.000000000000000020816681711721685132943093776703e-02
