time,u0,u1,tau
0.000000000000000000000000000000000000000000000000e+00,-4.000000000000000222044604925031308084726333618164e-01,4.500000000000000666133814775093924254179000854492e-01,1.000000000000000020816681711721685132943093776703e-02
1.000000000000000020816681711721685132943093776703e-02,-3.932700944284598931766083751426776871085166931152e-01,4.555900530968711725776643106655683368444442749023e-01,1.000000000000000020816681711721685132943093776703e-02
2.000000000000000041633363423443370265886187553406e-02,-3.864618198443188212820587068563327193260192871094e-01,4.610806520095583338481048940593609586358070373535e-01,1.000000000000000020816681711721685132943093776703e-02
2.999999999999999888977697537484345957636833190918e-02,-3.795766782397221872358272776182275265455245971680e-01,4.664708866106430651399250564281828701496124267578e-01,1.000000000000000020816681711721685132943093776703e-02
4.000000000000000083266726846886740531772375106812e-02,-3.726161772587340825779733677336480468511581420898e-01,4.717598744429650770015882699226494878530502319336e-01,1.000000000000000020816681711721685132943093776703e-02
5.000000000000000277555756156289135105907917022705e-02,-3.655818296201912009912859957694308832287788391113e-01,4.769467605435284141002227897843113169074058532715e-01,1.000000000000000020816681711721685132943093776703e-02
6.000000000000000471844785465691529680043458938599e-02,-3.584751525496235324830252011452103033661842346191e-01,4.820307172424651009912111021549208089709281921387e-01,1.000000000000000020816681711721685132943093776703e-02
7.000000000000000666133814775093924254179000854492e-02,-3.512976672210957884701088005385827273130416870117e-01,4.870109439371519410855171372531913220882415771484e-01,1.000000000000000020816681711721685132943093776703e-02
8.000000000000000166533453693773481063544750213623e-02,-3.440508982098499091151211359829176217317581176758e-01,4.918866668416330134583347444277023896574974060059e-01,1.000000000000000020816681711721685132943093776703e-02
8.999999999999999666933092612453037872910499572754e-02,-3.367363729566567043249847301922272890806198120117e-01,4.966571387115599756079120652429992333054542541504e-01,1.000000000000000020816681711721685132943093776703e-02
9.999999999999999167332731531132594682276248931885e-02,-3.293556212448050524166376362700248137116432189941e-01,5.013216385449246192962391432956792414188385009766e-01,1.000000000000000020816681711721685132943093776703e-02
1.099999999999999866773237044981215149164199829102e-01,-3.219101746906772310019562155503081157803535461426e-01,5.058794712589222974941094435052946209907531738281e-01,1.000000000000000020816681711721685132943093776703e-02
1.199999999999999816813200936849170830100774765015e-01,-3.144015662488747198111127545416820794343948364258e-01,5.103299673433526750798705506895203143358230590820e-01,1.000000000000000020816681711721685132943093776703e-02
1.299999999999999766853164828717126511037349700928e-01,-3.068313297328688626919301896123215556144714355469e-01,5.146724824910305917669006703363265842199325561523e-01,1.000000000000000020816681711721685132943093776703e-02
1.399999999999999855671006798729649744927883148193e-01,-2.992009993521607125188666032045148313045501708984e-01,5.189063972057504914303649456996936351060867309570e-01,1.000000000000000020816681711721685132943093776703e-02
1.499999999999999944488848768742172978818416595459e-01,-2.915121092669361591021015556179918348789215087891e-01,5.230311163884182601435668402700684964656829833984e-01,1.000000000000000020816681711721685132943093776703e-02
1.600000000000000033306690738754696212708950042725e-01,-2.837661931612024956983475476590683683753013610840e-01,5.270460689020348699074247633689083158969879150391e-01,1.000000000000000020816681711721685132943093776703e-02
1.700000000000000122124532708767219446599483489990e-01,-2.759647838353879167883064837951678782701492309570e-01,5.309507071162875568859362829243764281272888183594e-01,1.000000000000000020816681711721685132943093776703e-02
1.800000000000000210942374678779742680490016937256e-01,-2.681094128193751147115619914984563365578651428223e-01,5.347445064325759833678830545977689325809478759766e-01,1.000000000000000020816681711721685132943093776703e-02
1.900000000000000299760216648792265914380550384521e-01,-2.602016100069270976291591068729758262634277343750e-01,5.384269647903704436586735937453340739011764526367e-01,1.000000000000000020816681711721685132943093776703e-02
2.000000000000000388578058618804789148271083831787e-01,-2.522429033124442554480992839671671390533447265625e-01,5.419976021558700063351921016874257475137710571289e-01,1.000000000000000020816681711721685132943093776703e-02
2.100000000000000477395900588817312382161617279053e-01,-2.442348183509694958814861820428632199764251708984e-01,5.454559599939967640125360048841685056686401367188e-01,1.000000000000000020816681711721685132943093776703e-02
2.200000000000000566213742558829835616052150726318e-01,-2.361788781423302951978371311270166188478469848633e-01,5.488016007248295302645146875875070691108703613281e-01,1.000000000000000020816681711721685132943093776703e-02
2.300000000000000655031584528842358849942684173584e-01,-2.280766028402751444126295155001571401953697204590e-01,5.520341071656464926320495578693225979804992675781e-01,1.000000000000000020816681711721685132943093776703e-02
2.400000000000000743849426498854882083833217620850e-01,-2.199295094874254008487923783832229673862457275391e-01,5.551530819598079480314822831132914870977401733398e-01,1.000000000000000020816681711721685132943093776703e-02
2.500000000000000555111512312578270211815834045410e-01,-2.117391117968240032976012798826559446752071380615e-01,5.581581469937741957210164400748908519744873046875e-01,1.000000000000000020816681711721685132943093776703e-02
2.600000000000000643929354282590793445706367492676e-01,-2.035069199608169898674248088354943320155143737793e-01,5.610489428036088410678416948940139263868331909180e-01,1.000000000000000020816681711721685132943093776703e-02
2.700000000000000732747196252603316679596900939941e-01,-1.952344404879561290400147299806121736764907836914e-01,5.638251279723761610895849116786848753690719604492e-01,1.000000000000000020816681711721685132943093776703e-02
2.800000000000000821565038222615839913487434387207e-01,-1.869231760685584053938157467200653627514839172363e-01,5.664863785198916978913530329009518027305603027344e-01,1.000000000000000020816681711721685132943093776703e-02
2.900000000000000910382880192628363147377967834473e-01,-1.785746254695020907021785205870401114225387573242e-01,5.690323872863353171780431694060098379850387573242e-01,1.000000000000000020816681711721685132943093776703e-02
3.000000000000000999200722162640886381268501281738e-01,-1.701902834587794011156347551150247454643249511719e-01,5.714628633112815991879074317694175988435745239258e-01,1.000000000000000020816681711721685132943093776703e-02
3.100000000000001088018564132653409615159034729004e-01,-1.617716407602635131368629117787349969148635864258e-01,5.737775312097450619575056407484225928783416748047e-01,1.000000000000000020816681711721685132943093776703e-02
3.200000000000001176836406102665932849049568176270e-01,-1.533201840390809034264663068825029768049716949463e-01,5.759761305468745762325966097705531865358352661133e-01,1.000000000000000020816681711721685132943093776703e-02
3.300000000000001265654248072678456082940101623535e-01,-1.448373959179117820283977380313444882631301879883e-01,5.780584152129674135878190099901985377073287963867e-01,1.000000000000000020816681711721685132943093776703e-02
3.400000000000001354472090042690979316830635070801e-01,-1.363247550244688355292055348400026559829711914062e-01,5.800241528005033453396777076704893261194229125977e-01,1.000000000000000020816681711721685132943093776703e-02
3.500000000000001443289932012703502550721168518066e-01,-1.277837360703310554121969744301168248057365417480e-01,5.818731239849255221230350798578001558780670166016e-01,1.000000000000000020816681711721685132943093776703e-02
3.600000000000001532107773982716025784611701965332e-01,-1.192158099612320443227986288547981530427932739258e-01,5.836051219109162913056820798374246805906295776367e-01,1.000000000000000020816681711721685132943093776703e-02
3.700000000000001620925615952728549018502235412598e-01,-1.106224439388238112158546755381394177675247192383e-01,5.852199515859370926307292393175885081291198730469e-01,1.000000000000000020816681711721685132943093776703e-02
3.800000000000001709743457922741072252392768859863e-01,-1.020051017538561588526846435343031771481037139893e-01,5.867174292828120085729892707604449242353439331055e-01,1.000000000000000020816681711721685132943093776703e-02
3.900000000000001798561299892753595486283302307129e-01,-9.336524387062898611144845517628709785640239715576e-02,5.880973819531467583487938100006431341171264648438e-01,1.000000000000000020816681711721685132943093776703e-02
4.000000000000001887379141862766118720173835754395e-01,-8.470432770249111675830988588131731376051902770996e-02,5.893596466533801425669025775277987122535705566406e-01,1.000000000000000020816681711721685132943093776703e-02
4.100000000000001976196983832778641954064369201660e-01,-7.602380787807332118699576994913513772189617156982e-02,5.905040699852655006196755493874661624431610107422e-01,1.000000000000000020816681711721685132943093776703e-02
4.200000000000002065014825802791165187954902648926e-01,-6.732513653785662799400313360820291563868522644043e-02,5.915305075525781886014442534360568970441818237305e-01,1.000000000000000020816681711721685132943093776703e-02
4.300000000000002153832667772803688421845436096191e-01,-5.860976366058926606550372184756270144134759902954e-02,5.924388234358372029575434680737089365720748901367e-01,1.000000000000000020816681711721685132943093776703e-02
4.400000000000002242650509742816211655735969543457e-01,-4.987913741897667674329852616210700944066047668457e-02,5.932288896868190830602429741702508181333541870117e-01,1.000000000000000020816681711721685132943093776703e-02
4.500000000000002331468351712828734889626502990723e-01,-4.113470456397987085050971245436812750995159149170e-02,5.939005858446267938077767212234903126955032348633e-01,1.000000000000000020816681711721685132943093776703e-02
4.600000000000002420286193682841258123517036437988e-01,-3.237791083696722749252216999593656510114669799805e-02,5.944537984750576375958530661591794341802597045898e-01,1.000000000000000020816681711721685132943093776703e-02
4.700000000000002509104035652853781357407569885254e-01,-2.361020140887448021116412633091385941952466964722e-02,5.948884207349907082829076898633502423763275146484e-01,1.000000000000000020816681711721685132943093776703e-02
4.800000000000002597921877622866304591298103332520e-01,-1.483302134543693084900439771445235237479209899902e-02,5.952043519634884205515845678746700286865234375000e-01,1.000000000000000020816681711721685132943093776703e-02
4.900000000000002686739719592878827825188636779785e-01,-6.047816097467090951100843199128576088696718215942e-03,5.954014973012762279580556423752568662166595458984e-01,1.000000000000000020816681711721685132943093776703e-02
5.000000000000002220446049250313080847263336181641e-01,2.743967984940080817590768447189475409686565399170e-03,5.954797673402291158240018376091029495000839233398e-01,1.000000000000000020816681711721685132943093776703e-02
