time,u0,u1,tau
0.000000000000000000000000000000000000000000000000e+00,4.500000000000000666133814775093924254179000854492e-01,2.500000000000000000000000000000000000000000000000e-01,1.000000000000000020816681711721685132943093776703e-02
1.000000000000000020816681711721685132943093776703e-02,4.527312824130112489662280950142303481698036193848e-01,2.454128841319362930306624548393301665782928466797e-01,1.000000000000000020816681711721685132943093776703e-02
2.000000000000000041633363423443370265886187553406e-02,4.554143354226776740922844055603491142392158508301e-01,2.407955103802361940257270589427207596600055694580e-01,1.000000000000000020816681711721685132943093776703e-02
2.999999999999999888977697537484345957636833190918e-02,4.580487071606438309601116998237557709217071533203e-01,2.361483098343305775390632561538950540125370025635e-01,1.000000000000000020816681711721685132943093776703e-02
4.000000000000000083266726846886740531772375106812e-02,4.606339494216822871841543474147329106926918029785e-01,2.314717221359879062436704089122940786182880401611e-01,1.000000000000000020816681711721685132943093776703e-02
5.000000000000000277555756156289135105907917022705e-02,4.631696179164959681351376730162883177399635314941e-01,2.267661954951730451934821530812769196927547454834e-01,1.000000000000000020816681711721685132943093776703e-02
6.000000000000000471844785465691529680043458938599e-02,4.656552725258822911236222807929152622818946838379e-01,2.220321866974979407860502078619902022182941436768e-01,1.000000000000000020816681711721685132943093776703e-02
7.000000000000000666133814775093924254179000854492e-02,4.680904775559217578795312419970287010073661804199e-01,2.172701611031591928391293322420096956193447113037e-01,1.000000000000000020816681711721685132943093776703e-02
8.000000000000000166533453693773481063544750213623e-02,4.704748019938493341918217538477620109915733337402e-01,2.124805926372700659587877680678502656519412994385e-01,1.000000000000000020816681711721685132943093776703e-02
8.999999999999999666933092612453037872910499572754e-02,4.728078197642631708141891522245714440941810607910e-01,2.076639637715078645641142429667524993419647216797e-01,1.000000000000000020816681711721685132943093776703e-02
9.999999999999999167332731531132594682276248931885e-02,4.750891099853202237390803475136635825037956237793e-01,2.028207654970105577874051050457637757062911987305e-01,1.000000000000000020816681711721685132943093776703e-02
1.099999999999999866773237044981215149164199829102e-01,4.773182572245669996746642027574125677347183227539e-01,1.979514972884708345901572101865895092487335205078e-01,1.000000000000000020816681711721685132943093776703e-02
1.199999999999999816813200936849170830100774765015e-01,4.794948517540508214906935791077557951211929321289e-01,1.930566670593890366003364533753483556210994720459e-01,1.000000000000000020816681711721685132943093776703e-02
1.299999999999999766853164828717126511037349700928e-01,4.816184898043547879531445232714759185910224914551e-01,1.881367911084614319427998907485743984580039978027e-01,1.000000000000000020816681711721685132943093776703e-02
1.399999999999999855671006798729649744927883148193e-01,4.836887738172006012682402342761633917689323425293e-01,1.831923940570936715221961321731214411556720733643e-01,1.000000000000000020816681711721685132943093776703e-02
1.499999999999999944488848768742172978818416595459e-01,4.857053126962616040884768153773620724678039550781e-01,1.782240087780448678511646676270174793899059295654e-01,1.000000000000000020816681711721685132943093776703e-02
1.600000000000000033306690738754696212708950042725e-01,4.876677220558301439901072171778650954365730285645e-01,1.732321763152215587933113738472457043826580047607e-01,1.000000000000000020816681711721685132943093776703e-02
1.700000000000000122124532708767219446599483489990e-01,4.895756244669849932549254845071118324995040893555e-01,1.682174457946559453791479654682916589081287384033e-01,1.000000000000000020816681711721685132943093776703e-02
1.800000000000000210942374678779742680490016937256e-01,4.914286497009057730345205072808312252163887023926e-01,1.631803743267176143305619007151108235120773315430e-01,1.000000000000000020816681711721685132943093776703e-02
1.900000000000000299760216648792265914380550384521e-01,4.932264349689856608449645136715844273567199707031e-01,1.581215268996226663844595350383315235376358032227e-01,1.000000000000000020816681711721685132943093776703e-02
2.000000000000000388578058618804789148271083831787e-01,4.949686251593963803863118755543837323784828186035e-01,1.530414762643189097168772150325821712613105773926e-01,1.000000000000000020816681711721685132943093776703e-02
2.100000000000000477395900588817312382161617279053e-01,4.966548730697643021514409156225156038999557495117e-01,1.479408028108406547573849820764735341072082519531e-01,1.000000000000000020816681711721685132943093776703e-02
2.200000000000000566213742558829835616052150726318e-01,4.982848396356222564484994563827058300375938415527e-01,1.428200944362409408050496040232246741652488708496e-01,1.000000000000000020816681711721685132943093776703e-02
2.300000000000000655031584528842358849942684173584e-01,4.998581941543066009536744331853697076439857482910e-01,1.376799464042240683792073241420439444482326507568e-01,1.000000000000000020816681711721685132943093776703e-02
2.400000000000000743849426498854882083833217620850e-01,5.013746145039768009610270382836461067199707031250e-01,1.325209611966148559591971434201695956289768218994e-01,1.000000000000000020816681711721685132943093776703e-02
2.500000000000000555111512312578270211815834045410e-01,5.028337873574415528565850763698108494281768798828e-01,1.273437483568155836888280418861540965735912322998e-01,1.000000000000000020816681711721685132943093776703e-02
2.600000000000000643929354282590793445706367492676e-01,5.042354083904836414831152069382369518280029296875e-01,1.221489243254152978757076652982505038380622863770e-01,1.000000000000000020816681711721685132943093776703e-02
2.700000000000000732747196252603316679596900939941e-01,5.055791824843850479354046001390088349580764770508e-01,1.169371122681295838141579679358983412384986877441e-01,1.000000000000000020816681711721685132943093776703e-02
2.800000000000000821565038222615839913487434387207e-01,5.068648239223625395766248402651399374008178710938e-01,1.117089418962619595809826478216564282774925231934e-01,1.000000000000000020816681711721685132943093776703e-02
2.900000000000000910382880192628363147377967834473e-01,5.080920565796337440289676123938988894224166870117e-01,1.064650492798910746961027484758233185857534408569e-01,1.000000000000000020816681711721685132943093776703e-02
3.000000000000000999200722162640886381268501281738e-01,5.092606141068456437892564281355589628219604492188e-01,1.012060766540001377489232936568441800773143768311e-01,1.000000000000000020816681711721685132943093776703e-02
3.100000000000001088018564132653409615159034729004e-01,5.103702401066078087055188916565384715795516967773e-01,9.593267221777694586659634978786925785243511199951e-02,1.000000000000000020816681711721685132943093776703e-02
3.200000000000001176836406102665932849049568176270e-01,5.114206883028828976023305585840716958045959472656e-01,9.064548992732431031971174206773866899311542510986e-02,1.000000000000000020816681711721685132943093776703e-02
3.300000000000001265654248072678456082940101623535e-01,5.124117227030027255096911176224239170551300048828e-01,8.534518928203183030234413308789953589439392089844e-02,1.000000000000000020816681711721685132943093776703e-02
3.400000000000001354472090042690979316830635070801e-01,5.133431177520871857566930884786415845155715942383e-01,8.003243510487023648636295547476038336753845214844e-02,1.000000000000000020816681711721685132943093776703e-02
3.500000000000001443289932012703502550721168518066e-01,5.142146584796584152243781318247783929109573364258e-01,7.470789731687953183492112430030829273164272308350e-02,1.000000000000000020816681711721685132943093776703e-02
3.600000000000001532107773982716025784611701965332e-01,5.150261406382560247507740314176771789789199829102e-01,6.937225070613133037777942035972955636680126190186e-02,1.000000000000000020816681711721685132943093776703e-02
3.700000000000001620925615952728549018502235412598e-01,5.157773708338714291343762852193322032690048217773e-01,6.402617469145475970204728355383849702775478363037e-02,1.000000000000000020816681711721685132943093776703e-02
3.800000000000001709743457922741072252392768859863e-01,5.164681666480365196392199322872329503297805786133e-01,5.867035308122314773981997859664261341094970703125e-02,1.000000000000000020816681711721685132943093776703e-02
3.900000000000001798561299892753595486283302307129e-01,5.170983567514121359565137936442624777555465698242e-01,5.330547382750631946191077759067411534488201141357e-02,1.000000000000000020816681711721685132943093776703e-02
4.000000000000001887379141862766118720173835754395e-01,5.176677810087411124584377830615267157554626464844e-01,4.793222877590012920290263309652800671756267547607e-02,1.000000000000000020816681711721685132943093776703e-02
4.100000000000001976196983832778641954064369201660e-01,5.181762905750407766092280326120089739561080932617e-01,4.255131341135093975269754196233407128602266311646e-02,1.000000000000000020816681711721685132943093776703e-02
4.200000000000002065014825802791165187954902648926e-01,5.186237479829287622123956680297851562500000000000e-01,3.716342660029831046486492596159223467111587524414e-02,1.000000000000000020816681711721685132943093776703e-02
4.300000000000002153832667772803688421845436096191e-01,5.190100272209887677377082582097500562667846679688e-01,3.176927032946392365220233955369621980935335159302e-02,1.000000000000000020816681711721685132943093776703e-02
4.400000000000002242650509742816211655735969543457e-01,5.193350138030979890046978653117548674345016479492e-01,2.636954944161879615949217736670107115060091018677e-02,1.000000000000000020816681711721685132943093776703e-02
4.500000000000002331468351712828734889626502990723e-01,5.195986048286546088448289992811623960733413696289e-01,2.096497136866444857550284552871744381263852119446e-02,1.000000000000000020816681711721685132943093776703e-02
4.600000000000002420286193682841258123517036437988e-01,5.198007090336571600630577449919655919075012207031e-01,1.555624586236616785361874804038961883634328842163e-02,1.000000000000000020816681711721685132943093776703e-02
4.700000000000002509104035652853781357407569885254e-01,5.199412468326041203425802450510673224925994873047e-01,1.014408472307872302597964164760924177244305610657e-02,1.000000000000000020816681711721685132943093776703e-02
4.800000000000002597921877622866304591298103332520e-01,5.200201503511951983682592981494963169097900390625e-01,4.729201526806127951763070171864455915056169033051e-03,1.000000000000000020816681711721685132943093776703e-02
4.900000000000002686739719592878827825188636779785e-01,5.200373634498327568564945977414026856422424316406e-01,-6.876886490622168349173826129572262289002537727356e-04,1.000000000000000020816681711721685132943093776703e-02
5.000000000000002220446049250313080847263336181641e-01,5.199928417379343636994804001005832105875015258789e-01,-6.105869500996753511390391366830954211764037609100e-03,1.000000000000000020816681711721685132943093776703e-02
