time,u0,u1,tau
0.000000000000000000000000000000000000000000000000e+00,4.000000000000000222044604925031308084726333618164e-01,5.000000000000004440892098500626161694526672363281e-02,1.000000000000000020816681711721685132943093776703e-02
1.000000000000000020816681711721685132943093776703e-02,4.003396733463493450955184016493149101734161376953e-01,4.756122967251803085320105424216308165341615676880e-02,1.000000000000000020816681711721685132943093776703e-02
2.000000000000000041633363423443370265886187553406e-02,4.006627263543944827972609346034005284309387207031e-01,4.511996025376318469879421968471433501690626144409e-02,1.000000000000000020816681711721685132943093776703e-02
2.999999999999999888977697537484345957636833190918e-02,4.009691157659688864889346859854413196444511413574e-01,4.267629613137292193814076313174155075103044509888e-02,1.000000000000000020816681711721685132943093776703e-02
4.000000000000000083266726846886740531772375106812e-02,4.012587994023447124369852190284291282296180725098e-01,4.023034241719938841619352842826629057526588439941e-02,1.000000000000000020816681711721685132943093776703e-02
5.000000000000000277555756156289135105907917022705e-02,4.015317361809308538411755762354005128145217895508e-01,3.778220493072195068640084514299815054982900619507e-02,1.000000000000000020816681711721685132943093776703e-02
6.000000000000000471844785465691529680043458938599e-02,4.017878861315967164991036497667664662003517150879e-01,3.533199018204954272581730378988140728324651718140e-02,1.000000000000000020816681711721685132943093776703e-02
7.000000000000000666133814775093924254179000854492e-02,4.020272104126124679268627915007527917623519897461e-01,3.287980535452100783189166577358264476060867309570e-02,1.000000000000000020816681711721685132943093776703e-02
8.000000000000000166533453693773481063544750213623e-02,4.022496713261946577055994112015468999743461608887e-01,3.042575828691163400407937444924755254760384559631e-02,1.000000000000000020816681711721685132943093776703e-02
8.999999999999999666933092612453037872910499572754e-02,4.024552323336481052251656365115195512771606445312e-01,2.796995745525455989710650328561314381659030914307e-02,1.000000000000000020816681711721685132943093776703e-02
9.999999999999999167332731531132594682276248931885e-02,4.026438580700937297507380208116956055164337158203e-01,2.551251195428590884395347870849946048110723495483e-02,1.000000000000000020816681711721685132943093776703e-02
1.099999999999999866773237044981215149164199829102e-01,4.028155143587732744947516039246693253517150878906e-01,2.305353147852283457464039884143858216702938079834e-02,1.000000000000000020816681711721685132943093776703e-02
1.199999999999999816813200936849170830100774765015e-01,4.029701682249216543318937056028516963124275207520e-01,2.059312630298393634320497369571967283263802528381e-02,1.000000000000000020816681711721685132943093776703e-02
1.299999999999999766853164828717126511037349700928e-01,4.031077879091975457725993692292831838130950927734e-01,1.813140726356177179212636474403552711009979248047e-02,1.000000000000000020816681711721685132943093776703e-02
1.399999999999999855671006798729649744927883148193e-01,4.032283428806639480335149983147857710719108581543e-01,1.566848573705746303086350224020861787721514701843e-02,1.000000000000000020816681711721685132943093776703e-02
1.499999999999999944488848768742172978818416595459e-01,4.033318038493098334207331845391308888792991638184e-01,1.320447362088764294008047528450333629734814167023e-02,1.000000000000000020816681711721685132943093776703e-02
1.600000000000000033306690738754696212708950042725e-01,4.034181427781050044423238887247862294316291809082e-01,1.073948331247426800361122189997331588529050350189e-02,1.000000000000000020816681711721685132943093776703e-02
1.700000000000000122124532708767219446599483489990e-01,4.034873328945800530220822111004963517189025878906e-01,8.273627688328046014820671416600816883146762847900e-03,1.000000000000000020816681711721685132943093776703e-02
1.800000000000000210942374678779742680490016937256e-01,4.035393487019234837198666809854330494999885559082e-01,5.807020082836478538923508097013836959376931190491e-03,1.000000000000000020816681711721685132943093776703e-02
1.900000000000000299760216648792265914380550384521e-01,4.035741659895891175757753899233648553490638732910e-01,3.339774266767753501533588789129680662881582975388e-03,1.000000000000000020816681711721685132943093776703e-02
2.000000000000000388578058618804789148271083831787e-01,4.035917618434062825727437484601978212594985961914e-01,8.720044255019409815132824803640687605366110801697e-04,1.000000000000000020816681711721685132943093776703e-02
2.100000000000000477395900588817312382161617279053e-01,4.035921146551862404017185781412990763783454895020e-01,-1.596174862998833536564813329050593893043696880341e-03,1.000000000000000020816681711721685132943093776703e-02
2.200000000000000566213742558829835616052150726318e-01,4.035752041318181326801095565315335988998413085938e-01,-4.064648650469344752511613449996730196289718151093e-03,1.000000000000000020816681711721685132943093776703e-02
2.300000000000000655031584528842358849942684173584e-01,4.035410113038482848857313456392148509621620178223e-01,-6.533301640857285680352717349705926608294248580933e-03,1.000000000000000020816681711721685132943093776703e-02
2.400000000000000743849426498854882083833217620850e-01,4.034895185335374834245669717347482219338417053223e-01,-9.002018213064044357962778519777202745899558067322e-03,1.000000000000000020816681711721685132943093776703e-02
2.500000000000000555111512312578270211815834045410e-01,4.034207095223898420499608619138598442077636718750e-01,-1.147068244389780160286118615431405487470328807831e-02,1.000000000000000020816681711721685132943093776703e-02
2.600000000000000643929354282590793445706367492676e-01,4.033345693181488722522942680370761081576347351074e-01,-1.393917813122630064426310525504959514364600181580e-02,1.000000000000000020816681711721685132943093776703e-02
2.700000000000000732747196252603316679596900939941e-01,4.032310843212553175263224147784058004617691040039e-01,-1.640738881731649070894185626912076259031891822815e-02,1.000000000000000020816681711721685132943093776703e-02
2.800000000000000821565038222615839913487434387207e-01,4.031102422907624216463773336727172136306762695312e-01,-1.887519781234808097236665958007506560534238815308e-02,1.000000000000000020816681711721685132943093776703e-02
2.900000000000000910382880192628363147377967834473e-01,4.029720323497044676130940388247836381196975708008e-01,-2.134248821808791898857471380779315950348973274231e-02,1.000000000000000020816681711721685132943093776703e-02
3.000000000000000999200722162640886381268501281738e-01,4.028164449899145349576201624586246907711029052734e-01,-2.380914295171192296418638534305500797927379608154e-02,1.000000000000000020816681711721685132943093776703e-02
3.100000000000001088018564132653409615159034729004e-01,4.026434720762883667788400998688302934169769287109e-01,-2.627504476976121744469239160935103427618741989136e-02,1.000000000000000020816681711721685132943093776703e-02
3.200000000000001176836406102665932849049568176270e-01,4.024531068504906272664811694994568824768066406250e-01,-2.874007629221900228522201814485015347599983215332e-02,1.000000000000000020816681711721685132943093776703e-02
3.300000000000001265654248072678456082940101623535e-01,4.022453439341011072194476128061069175601005554199e-01,-3.120412002669451997927119180076260818168520927429e-02,1.000000000000000020816681711721685132943093776703e-02
3.400000000000001354472090042690979316830635070801e-01,4.020201793311984905798794898146297782659530639648e-01,-3.366705839270046907163447258426458574831485748291e-02,1.000000000000000020816681711721685132943093776703e-02
3.500000000000001443289932012703502550721168518066e-01,4.017776104303792394922822950320551171898841857910e-01,-3.612877374601008995114170829765498638153076171875e-02,1.000000000000000020816681711721685132943093776703e-02
3.600000000000001532107773982716025784611701965332e-01,4.015176360062102101089465122640831395983695983887e-01,-3.858914840308002441870982579530391376465559005737e-02,1.000000000000000020816681711721685132943093776703e-02
3.700000000000001620925615952728549018502235412598e-01,4.012402562201134448294226331199752166867256164551e-01,-4.104806466552509552903060807693691458553075790405e-02,1.000000000000000020816681711721685132943093776703e-02
3.800000000000001709743457922741072252392768859863e-01,4.009454726206821972844807078217854723334312438965e-01,-4.350540484463100154854942047677468508481979370117e-02,1.000000000000000020816681711721685132943093776703e-02
3.900000000000001798561299892753595486283302307129e-01,4.006332881434273018861347281927010044455528259277e-01,-4.596105128589090399460204139359120745211839675903e-02,1.000000000000000020816681711721685132943093776703e-02
4.000000000000001887379141862766118720173835754395e-01,4.003037071099542765217904616292798891663551330566e-01,-4.841488639355184808721332956338301301002502441406e-02,1.000000000000000020816681711721685132943093776703e-02
4.100000000000001976196983832778641954064369201660e-01,3.999567352265702702140970359323546290397644042969e-01,-5.086679265515701292565964308778347913175821304321e-02,1.000000000000000020816681711721685132943093776703e-02
4.200000000000002065014825802791165187954902648926e-01,3.995923795823220214806781314109684899449348449707e-01,-5.331665266606960829065542384341824799776077270508e-02,1.000000000000000020816681711721685132943093776703e-02
4.300000000000002153832667772803688421845436096191e-01,3.992106486464654935275575553532689809799194335938e-01,-5.576434915396438762869024685642216354608535766602e-02,1.000000000000000020816681711721685132943093776703e-02
4.400000000000002242650509742816211655735969543457e-01,3.988115522653680744546988989895908161997795104980e-01,-5.820976500327270514167921078296785708516836166382e-02,1.000000000000000020816681711721685132943093776703e-02
4.500000000000002331468351712828734889626502990723e-01,3.983951016588450633193474459403660148382186889648e-01,-6.065278327956701714951393000774260144680738449097e-02,1.000000000000000020816681711721685132943093776703e-02
4.600000000000002420286193682841258123517036437988e-01,3.979613094159324404586186574306339025497436523438e-01,-6.309328725387082503761604357350734062492847442627e-02,1.000000000000000020816681711721685132943093776703e-02
4.700000000000002509104035652853781357407569885254e-01,3.975101894900978649616263282950967550277709960938e-01,-6.553116042688009179606467569101369008421897888184e-02,1.000000000000000020816681711721685132943093776703e-02
4.800000000000002597921877622866304591298103332520e-01,3.970417571938926748487119766650721430778503417969e-01,-6.796628655308210864571805132072768174111843109131e-02,1.000000000000000020816681711721685132943093776703e-02
4.900000000000002686739719592878827825188636779785e-01,3.965560291930478875599419552600011229515075683594e-01,-7.039854966475805886361172269971575587987899780273e-02,1.000000000000000020816681711721685132943093776703e-02
5.000000000000002220446049250313080847263336181641e-01,3.960530235000170873327363096905173733830451965332e-01,-7.282783409585535938646216891356743872165679931641e-02,1.000000000000000020816681711721685132943093776703e-02
