time,u0,u1,tau
0.000000000000000000000000000000000000000000000000e+00,5.000000000000000000000000000000000000000000000000e-01,3.500000000000000888178419700125232338905334472656e-01,1.000000000000000020816681711721685132943093776703e-02
1.000000000000000020816681711721685132943093776703e-02,5.052913231165132579292276204796507954597473144531e-01,3.427306103764669598099601444118889048695564270020e-01,1.000000000000000020816681711721685132943093776703e-02
2.000000000000000041633363423443370265886187553406e-02,5.104743256812566132296637988474685698747634887695e-01,3.353814560908190411936402597348205745220184326172e-01,1.000000000000000020816681711721685132943093776703e-02
2.999999999999999888977697537484345957636833190918e-02,5.155475305986131351332346639537718147039413452148e-01,3.279539349429980710226573137333616614341735839844e-01,1.000000000000000020816681711721685132943093776703e-02
4.000000000000000083266726846886740531772375106812e-02,5.205094781813814908133508652099408209323883056641e-01,3.204494790024485784130092724808491766452789306641e-01,1.000000000000000020816681711721685132943093776703e-02
5.000000000000000277555756156289135105907917022705e-02,5.253587274915544336195694086200091987848281860352e-01,3.128695547212662630975898991891881451010704040527e-01,1.000000000000000020816681711721685132943093776703e-02
6.000000000000000471844785465691529680043458938599e-02,5.300938576913678534907603534520603716373443603516e-01,3.052156629856092595609595718997297808527946472168e-01,1.000000000000000020816681711721685132943093776703e-02
7.000000000000000666133814775093924254179000854492e-02,5.347134694008172095536224333045538514852523803711e-01,2.974893391042309764848994291241979226469993591309e-01,1.000000000000000020816681711721685132943093776703e-02
8.000000000000000166533453693773481063544750213623e-02,5.392161860577772136693397442286368459463119506836e-01,2.896921527332050882996838936378480866551399230957e-01,1.000000000000000020816681711721685132943093776703e-02
8.999999999999999666933092612453037872910499572754e-02,5.436006552768180011270260365563444793224334716797e-01,2.818257077361305817930769990198314189910888671875e-01,1.000000000000000020816681711721685132943093776703e-02
9.999999999999999167332731531132594682276248931885e-02,5.478655502027840462631047557806596159934997558594e-01,2.738916419793296919138470002508256584405899047852e-01,1.000000000000000020816681711721685132943093776703e-02
1.099999999999999866773237044981215149164199829102e-01,5.520095708551946422915079892845824360847473144531e-01,2.658916270617783239593734379013767465949058532715e-01,1.000000000000000020816681711721685132943093776703e-02
1.199999999999999816813200936849170830100774765015e-01,5.560314454595344235698917145782615989446640014648e-01,2.578273679797409845271261019661324098706245422363e-01,1.000000000000000020816681711721685132943093776703e-02
1.299999999999999766853164828717126511037349700928e-01,5.599299317615290538796557484602089971303939819336e-01,2.497006027263127814208587551547680050134658813477e-01,1.000000000000000020816681711721685132943093776703e-02
1.399999999999999855671006798729649744927883148193e-01,5.637038183205493879768255283124744892120361328125e-01,2.415131018263070306062445524730719625949859619141e-01,1.000000000000000020816681711721685132943093776703e-02
1.499999999999999944488848768742172978818416595459e-01,5.673519257783499192271392530528828501701354980469e-01,2.332666678071571020325336576206609606742858886719e-01,1.000000000000000020816681711721685132943093776703e-02
1.600000000000000033306690738754696212708950042725e-01,5.708731080994308149101357230392750352621078491211e-01,2.249631346067331727489602144487434998154640197754e-01,1.000000000000000020816681711721685132943093776703e-02
1.700000000000000122124532708767219446599483489990e-01,5.742662537794125388046495572780258953571319580078e-01,2.166043669192007359303175917375483550131320953369e-01,1.000000000000000020816681711721685132943093776703e-02
1.800000000000000210942374678779742680490016937256e-01,5.775302870179281899964962576632387936115264892578e-01,2.081922594802703974092850103261298500001430511475e-01,1.000000000000000020816681711721685132943093776703e-02
1.900000000000000299760216648792265914380550384521e-01,5.806641688526744671250412466179113835096359252930e-01,1.997287362934042909135001764298067428171634674072e-01,1.000000000000000020816681711721685132943093776703e-02
2.000000000000000388578058618804789148271083831787e-01,5.836668982514096049030172252969350665807723999023e-01,1.912157497987537757566656182461883872747421264648e-01,1.000000000000000020816681711721685132943093776703e-02
2.100000000000000477395900588817312382161617279053e-01,5.865375131588513868408085727423895150423049926758e-01,1.826552799868030318997114136436721310019493103027e-01,1.000000000000000020816681711721685132943093776703e-02
2.200000000000000566213742558829835616052150726318e-01,5.892750914956079721918058567098341882228851318359e-01,1.740493334588839591248188298777677118778228759766e-01,1.000000000000000020816681711721685132943093776703e-02
2.300000000000000655031584528842358849942684173584e-01,5.918787521064630130496198034961707890033721923828e-01,1.653999424369076987062499028979800641536712646484e-01,1.000000000000000020816681711721685132943093776703e-02
2.400000000000000743849426498854882083833217620850e-01,5.943476556555422618544071156065911054611206054688e-01,1.567091637248257396386463824455859139561653137207e-01,1.000000000000000020816681711721685132943093776703e-02
2.500000000000000555111512312578270211815834045410e-01,5.966810054660993678510294557781890034675598144531e-01,1.479790776244888084178796816559042781591415405273e-01,1.000000000000000020816681711721685132943093776703e-02
2.600000000000000643929354282590793445706367492676e-01,5.988780483028822709812288849207106977701187133789e-01,1.392117868087131837828707148219109512865543365479e-01,1.000000000000000020816681711721685132943093776703e-02
2.700000000000000732747196252603316679596900939941e-01,6.009380750952710847911930613918229937553405761719e-01,1.304094151544911983631180873999255709350109100342e-01,1.000000000000000020816681711721685132943093776703e-02
2.800000000000000821565038222615839913487434387207e-01,6.028604215996142823286163547891192138195037841797e-01,1.215741065393945163908284712306340225040912628174e-01,1.000000000000000020816681711721685132943093776703e-02
2.900000000000000910382880192628363147377967834473e-01,6.046444689994302512658919113164301961660385131836e-01,1.127080236043153105285341553098987787961959838867e-01,1.000000000000000020816681711721685132943093776703e-02
3.000000000000000999200722162640886381268501281738e-01,6.062896444423856445737897047365549951791763305664e-01,1.038133464857708965212168550351634621620178222656e-01,1.000000000000000020816681711721685132943093776703e-02
3.100000000000001088018564132653409615159034729004e-01,6.077954215132063131576956038770731538534164428711e-01,9.489227152106158302835581253020791336894035339355e-02,1.000000000000000020816681711721685132943093776703e-02
3.200000000000001176836406102665932849049568176270e-01,6.091613206419226322907434223452582955360412597656e-01,8.594700992961944174819421959909959696233272552490e-02,1.000000000000000020816681711721685132943093776703e-02
3.300000000000001265654248072678456082940101623535e-01,6.103869094470942835428672879061195999383926391602e-01,7.697978647391706674696365553245414048433303833008e-02,1.000000000000000020816681711721685132943093776703e-02
3.400000000000001354472090042690979316830635070801e-01,6.114718030139000282119354778842534869909286499023e-01,6.799283810332036603885086378795676864683628082275e-02,1.000000000000000020816681711721685132943093776703e-02
3.500000000000001443289932012703502550721168518066e-01,6.124156641072160400796065005124546587467193603516e-01,5.898841258426877620646422428762889467179775238037e-02,1.000000000000000020816681711721685132943093776703e-02
3.600000000000001532107773982716025784611701965332e-01,6.132182033200344051238062093034386634826660156250e-01,4.996876712014936688932564834431104827672243118286e-02,1.000000000000000020816681711721685132943093776703e-02
3.700000000000001620925615952728549018502235412598e-01,6.138791791577992151829334943613503128290176391602e-01,4.093616696419925815586537964918534271419048309326e-02,1.000000000000000020816681711721685132943093776703e-02
3.800000000000001709743457922741072252392768859863e-01,6.143983980594514004991424371837638318538665771484e-01,3.189288402872429706302881413648719899356365203857e-02,1.000000000000000020816681711721685132943093776703e-02
3.900000000000001798561299892753595486283302307129e-01,6.147757143561806136844438697153236716985702514648e-01,2.284119549386090519682568356074625626206398010254e-02,1.000000000000000020816681711721685132943093776703e-02
4.000000000000001887379141862766118720173835754395e-01,6.150110301690764336157712932617869228124618530273e-01,1.378338241903414793099180712943052640184760093689e-02,1.000000000000000020816681711721685132943093776703e-02
4.100000000000001976196983832778641954064369201660e-01,6.151042952470557878541512764059007167816162109375e-01,4.721728360178352110199107016796915559098124504089e-03,1.000000000000000020816681711721685132943093776703e-02
4.200000000000002065014825802791165187954902648926e-01,6.150555067466155767519353503303136676549911499023e-01,-4.341482004311362705162302688677300466224551200867e-03,1.000000000000000020816681711721685132943093776703e-02
4.300000000000002153832667772803688421845436096191e-01,6.148647089551176891930595047597307711839675903320e-01,-1.340396423603690961856571561838791240006685256958e-02,1.000000000000000020816681711721685132943093776703e-02
4.400000000000002242650509742816211655735969543457e-01,6.145319929594599273059429833665490150451660156250e-01,-2.246343548472298778939659769093850627541542053223e-02,1.000000000000000020816681711721685132943093776703e-02
4.500000000000002331468351712828734889626502990723e-01,6.140574962621164756271241458307486027479171752930e-01,-3.151761581939591105872011667088372632861137390137e-02,1.000000000000000020816681711721685132943093776703e-02
4.600000000000002420286193682841258123517036437988e-01,6.134414023466502330350635929789859801530838012695e-01,-4.056422954013461090738701386726461350917816162109e-02,1.000000000000000020816681711721685132943093776703e-02
4.700000000000002509104035652853781357407569885254e-01,6.126839401949015773141127283452078700065612792969e-01,-4.960100646805330748545515007208450697362422943115e-02,1.000000000000000020816681711721685132943093776703e-02
4.800000000000002597921877622866304591298103332520e-01,6.117853837581459508498937793774530291557312011719e-01,-5.862568321132052839850246073183370754122734069824e-02,1.000000000000000020816681711721685132943093776703e-02
4.900000000000002686739719592878827825188636779785e-01,6.107460513845868188553822619724087417125701904297e-01,-6.763600440516859269024507739231921732425689697266e-02,1.000000000000000020816681711721685132943093776703e-02
5.000000000000002220446049250313080847263336181641e-01,6.095663052056103925480101679568178951740264892578e-01,-7.662972392399970689158550385400303639471530914307e-02,1.000000000000000020816681711721685132943093776703e-02
