time,u0,u1,tau
0.000000000000000000000000000000000000000000000000e+00,5.000000000000000000000000000000000000000000000000e-01,-3.499999999999999777955395074968691915273666381836e-01,1.000000000000000020816681711721685132943093776703e-02
1.000000000000000020816681711721685132943093776703e-02,4.945861038869535097894925002037780359387397766113e-01,-3.572262303242494940747064902097918093204498291016e-01,1.000000000000000020816681711721685132943093776703e-02
2.000000000000000041633363423443370265886187553406e-02,4.890664555802942126128129984863335266709327697754e-01,-3.643682925975064712531548138940706849098205566406e-01,1.000000000000000020816681711721685132943093776703e-02
2.999999999999999888977697537484345957636833190918e-02,4.834424561848406076691730959282722324132919311523e-01,-3.714247487951263249073008410050533711910247802734e-01,1.000000000000000020816681711721685132943093776703e-02
4.000000000000000083266726846886740531772375106812e-02,4.777155228684949461737119236204307526350021362305e-01,-3.783941899961771326843518181703984737396240234375e-01,1.000000000000000020816681711721685132943093776703e-02
5.000000000000000277555756156289135105907917022705e-02,4.718870881729784749758493944682413712143898010254e-01,-3.852752365601532780203797301510348916053771972656e-01,1.000000000000000020816681711721685132943093776703e-02
6.000000000000000471844785465691529680043458938599e-02,4.659585993273510640122481163416523486375808715820e-01,-3.920665382799750631193091976456344127655029296875e-01,1.000000000000000020816681711721685132943093776703e-02
7.000000000000000666133814775093924254179000854492e-02,4.599315175646001563336540129967033863067626953125e-01,-3.987667745110587413925884447962744161486625671387e-01,1.000000000000000020816681711721685132943093776703e-02
8.000000000000000166533453693773481063544750213623e-02,4.538073174416100141748131591157289221882820129395e-01,-4.053746542762317051078468921332387253642082214355e-01,1.000000000000000020816681711721685132943093776703e-02
8.999999999999999666933092612453037872910499572754e-02,4.475874861628485468223459520231699571013450622559e-01,-4.118889163462612912347537985624512657523155212402e-01,1.000000000000000020816681711721685132943093776703e-02
9.999999999999999167332731531132594682276248931885e-02,4.412735229081415355700812597206095233559608459473e-01,-4.183083292957641141640579007798805832862854003906e-01,1.000000000000000020816681711721685132943093776703e-02
1.099999999999999866773237044981215149164199829102e-01,4.348669381649377108089993271278217434883117675781e-01,-4.246316915342647768660810925211990252137184143066e-01,1.000000000000000020816681711721685132943093776703e-02
1.199999999999999816813200936849170830100774765015e-01,4.283692530655045516141399275511503219604492187500e-01,-4.308578313121794178819357057363959029316902160645e-01,1.000000000000000020816681711721685132943093776703e-02
1.299999999999999766853164828717126511037349700928e-01,4.217819987295340911082064394577173516154289245605e-01,-4.369856067015109313267373636335832998156547546387e-01,1.000000000000000020816681711721685132943093776703e-02
1.399999999999999855671006798729649744927883148193e-01,4.151067156126776458435756467224564403295516967773e-01,-4.430139055510589063402449028217233717441558837891e-01,1.000000000000000020816681711721685132943093776703e-02
1.499999999999999944488848768742172978818416595459e-01,4.083449528615705759193588164635002613067626953125e-01,-4.489416454159669278567434957949444651603698730469e-01,1.000000000000000020816681711721685132943093776703e-02
1.600000000000000033306690738754696212708950042725e-01,4.014982676759500934693392082408536225557327270508e-01,-4.547677734614566924520318025315646082162857055664e-01,1.000000000000000020816681711721685132943093776703e-02
1.700000000000000122124532708767219446599483489990e-01,3.945682246785114921650006181153003126382827758789e-01,-4.604912663406279249578290091449161991477012634277e-01,1.000000000000000020816681711721685132943093776703e-02
1.800000000000000210942374678779742680490016937256e-01,3.875563952931909694754608608491253107786178588867e-01,-4.661111300462383866261006915010511875152587890625e-01,1.000000000000000020816681711721685132943093776703e-02
1.900000000000000299760216648792265914380550384521e-01,3.804643571326047357672450743848457932472229003906e-01,-4.716263997364182336546889473538612946867942810059e-01,1.000000000000000020816681711721685132943093776703e-02
2.000000000000000388578058618804789148271083831787e-01,3.732936933954145164449300864362157881259918212891e-01,-4.770361395343167831839537029736675322055816650391e-01,1.000000000000000020816681711721685132943093776703e-02
2.100000000000000477395900588817312382161617279053e-01,3.660459922744287997176115823094733059406280517578e-01,-4.823394423017289822652742259379010647535324096680e-01,1.000000000000000020816681711721685132943093776703e-02
2.200000000000000566213742558829835616052150726318e-01,3.587228463762863195363195245590759441256523132324e-01,-4.875354293868016664070808019459946081042289733887e-01,1.000000000000000020816681711721685132943093776703e-02
2.300000000000000655031584528842358849942684173584e-01,3.513258521536032907839341987710213288664817810059e-01,-4.926232503459765932340985727933002635836601257324e-01,1.000000000000000020816681711721685132943093776703e-02
2.400000000000000743849426498854882083833217620850e-01,3.438566093504977771999620017595589160919189453125e-01,-4.976020826403870223053615973185515031218528747559e-01,1.000000000000000020816681711721685132943093776703e-02
2.500000000000000555111512312578270211815834045410e-01,3.363167204624334938323215737909777089953422546387e-01,-5.024711313069902818284617751487530767917633056641e-01,1.000000000000000020816681711721685132943093776703e-02
2.600000000000000643929354282590793445706367492676e-01,3.287077902113517136051257239159895107150077819824e-01,-5.072296286047836000321353822073433548212051391602e-01,1.000000000000000020816681711721685132943093776703e-02
2.700000000000000732747196252603316679596900939941e-01,3.210314250370807642731563191773602738976478576660e-01,-5.118768336365223659001344458374660462141036987305e-01,1.000000000000000020816681711721685132943093776703e-02
2.800000000000000821565038222615839913487434387207e-01,3.132892326060318644032065549254184588789939880371e-01,-5.164120319464299280198815722542349249124526977539e-01,1.000000000000000020816681711721685132943093776703e-02
2.900000000000000910382880192628363147377967834473e-01,3.054828213382028700983994440321112051606178283691e-01,-5.208345350944648677327108998724725097417831420898e-01,1.000000000000000020816681711721685132943093776703e-02
3.000000000000000999200722162640886381268501281738e-01,2.976137999535207190326957515935646370053291320801e-01,-5.251436802077845689140644935832824558019638061523e-01,1.000000000000000020816681711721685132943093776703e-02
3.100000000000001088018564132653409615159034729004e-01,2.896837770385590205002301900094607844948768615723e-01,-5.293388295101228990802155749406665563583374023438e-01,1.000000000000000020816681711721685132943093776703e-02
3.200000000000001176836406102665932849049568176270e-01,2.816943606346656303607289828505599871277809143066e-01,-5.334193698298771435517551253724377602338790893555e-01,1.000000000000000020816681711721685132943093776703e-02
3.300000000000001265654248072678456082940101623535e-01,2.736471578485313305151294116512872278690338134766e-01,-5.373847120877766059265923104248940944671630859375e-01,1.000000000000000020816681711721685132943093776703e-02
3.400000000000001354472090042690979316830635070801e-01,2.655437744862196303152757081988966092467308044434e-01,-5.412342907650850021283872592903207987546920776367e-01,1.000000000000000020816681711721685132943093776703e-02
3.500000000000001443289932012703502550721168518066e-01,2.573858147116628303230356777930865064263343811035e-01,-5.449675633533654917073363321833312511444091796875e-01,1.000000000000000020816681711721685132943093776703e-02
3.600000000000001532107773982716025784611701965332e-01,2.491748807306096713531928799056913703680038452148e-01,-5.485840097869145726150463815429247915744781494141e-01,1.000000000000000020816681711721685132943093776703e-02
3.700000000000001620925615952728549018502235412598e-01,2.409125725009831076040001107685384340584278106689e-01,-5.520831318590475600416311863227747380733489990234e-01,1.000000000000000020816681711721685132943093776703e-02
3.800000000000001709743457922741072252392768859863e-01,2.326004874705778768806396783475065603852272033691e-01,-5.554644526234908674666712613543495535850524902344e-01,1.000000000000000020816681711721685132943093776703e-02
3.900000000000001798561299892753595486283302307129e-01,2.242402203429905149789647111902013421058654785156e-01,-5.587275157822116922190502918965648859739303588867e-01,1.000000000000000020816681711721685132943093776703e-02
4.000000000000001887379141862766118720173835754395e-01,2.158333628726345487791604682570323348045349121094e-01,-5.618718850610829873559737279720138758420944213867e-01,1.000000000000000020816681711721685132943093776703e-02
4.100000000000001976196983832778641954064369201660e-01,2.073815036896478058991988291381858289241790771484e-01,-5.648971435748512126551190704049076884984970092773e-01,1.000000000000000020816681711721685132943093776703e-02
4.200000000000002065014825802791165187954902648926e-01,1.988862281554488187218510120146675035357475280762e-01,-5.678028931829389724939005645865108817815780639648e-01,1.000000000000000020816681711721685132943093776703e-02
4.300000000000002153832667772803688421845436096191e-01,1.903491182496438449689435401523951441049575805664e-01,-5.705887538376748224777657014783471822738647460938e-01,1.000000000000000020816681711721685132943093776703e-02
4.400000000000002242650509742816211655735969543457e-01,1.817717524889271851762373444216791540384292602539e-01,-5.732543629266034779234928464575204998254776000977e-01,1.000000000000000020816681711721685132943093776703e-02
4.500000000000002331468351712828734889626502990723e-01,1.731557058785532787759109396574785932898521423340e-01,-5.757993746105822818748265490285120904445648193359e-01,1.000000000000000020816681711721685132943093776703e-02
4.600000000000002420286193682841258123517036437988e-01,1.645025498968914201558533250135951675474643707275e-01,-5.782234591594213046761296936892904341220855712891e-01,1.000000000000000020816681711721685132943093776703e-02
4.700000000000002509104035652853781357407569885254e-01,1.558138525135021323908546264647156931459903717041e-01,-5.805263022868716316082782213925383985042572021484e-01,1.000000000000000020816681711721685132943093776703e-02
4.800000000000002597921877622866304591298103332520e-01,1.470911782410985191305030639341566711664199829102e-01,-5.827076044868092496997746820852626115083694458008e-01,1.000000000000000020816681711721685132943093776703e-02
4.900000000000002686739719592878827825188636779785e-01,1.383360882216768672492435143794864416122436523438e-01,-5.847670803724992483196842840698082000017166137695e-01,1.000000000000000020816681711721685132943093776703e-02
5.000000000000002220446049250313080847263336181641e-01,1.295501403470185608490794493263820186257362365723e-01,-5.867044580208609083626924984855577349662780761719e-01,1.000000000000000020816681711721685132943093776703e-02
