time,u0,u1,tau
0.000000000000000000000000000000000000000000000000e+00,1.500000000000000222044604925031308084726333618164e-01,0.000000000000000000000000000000000000000000000000e+00,1.000000000000000020816681711721685132943093776703e-02
1.000000000000000020816681711721685132943093776703e-02,1.499999995781250428095177085197065025568008422852e-01,-7.500010472581037387993646570194528067077044397593e-05,1.000000000000000020816681711721685132943093776703e-02
2.000000000000000041633363423443370265886187553406e-02,1.499999012342676518727557777310721576213836669922e-01,-1.500008379340186264773449043019581949920393526554e-04,1.000000000000000020816681711721685132943093776703e-02
2.999999999999999888977697537484345957636833190918e-02,1.499997044052767403155002057246747426688671112061e-01,-2.250026044085154223756833902214680165343452244997e-04,1.000000000000000020816681711721685132943093776703e-02
4.000000000000000083266726846886740531772375106812e-02,1.499994085276412925100686379664693959057331085205e-01,-3.000058076426942573963763116751124471193179488182e-04,1.000000000000000020816681711721685132943093776703e-02
5.000000000000000277555756156289135105907917022705e-02,1.499990130374949659497474385716486722230911254883e-01,-3.750108498398730099560038908634851395618170499802e-04,1.000000000000000020816681711721685132943093776703e-02
6.000000000000000471844785465691529680043458938599e-02,1.499985173706208929633731941066798754036426544189e-01,-4.500181319137134053343096695698477560654282569885e-04,1.000000000000000020816681711721685132943093776703e-02
7.000000000000000666133814775093924254179000854492e-02,1.499979209624563158964605236178613267838954925537e-01,-5.250280534886385148257703647800553881097584962845e-04,1.000000000000000020816681711721685132943093776703e-02
8.000000000000000166533453693773481063544750213623e-02,1.499972232480974443369348136911867186427116394043e-01,-6.000410129002483033272552503945007629226893186569e-04,1.000000000000000020816681711721685132943093776703e-02
8.999999999999999666933092612453037872910499572754e-02,1.499964236623042013185624909965554252266883850098e-01,-6.750574071957329272061776315183578844880685210228e-04,1.000000000000000020816681711721685132943093776703e-02
9.999999999999999167332731531132594682276248931885e-02,1.499955216395049972799569104608963243663311004639e-01,-7.500776321342850563866910817978350678458809852600e-04,1.000000000000000020816681711721685132943093776703e-02
1.099999999999999866773237044981215149164199829102e-01,1.499945166138015872903110903280321508646011352539e-01,-8.251020821875097027708889640962297562509775161743e-04,1.000000000000000020816681711721685132943093776703e-02
1.199999999999999816813200936849170830100774765015e-01,1.499934080189739560307060628474573604762554168701e-01,-9.001311505398327476173969685646625293884426355362e-04,1.000000000000000020816681711721685132943093776703e-02
1.299999999999999766853164828717126511037349700928e-01,1.499921952884851472642679937052889727056026458740e-01,-9.751652290889079510369241710066035011550411581993e-04,1.000000000000000020816681711721685132943093776703e-02
1.399999999999999855671006798729649744927883148193e-01,1.499908778554862320842033795997849665582180023193e-01,-1.050204708446022660445207108637077908497303724289e-03,1.000000000000000020816681711721685132943093776703e-02
1.499999999999999944488848768742172978818416595459e-01,1.499894551528211383839561676722951233386993408203e-01,-1.125249977936501350611608884833003685344010591507e-03,1.000000000000000020816681711721685132943093776703e-02
1.600000000000000033306690738754696212708950042725e-01,1.499879266130317578831210312273469753563404083252e-01,-1.200301425600109380548152770984415838029235601425e-03,1.000000000000000020816681711721685132943093776703e-02
1.700000000000000122124532708767219446599483489990e-01,1.499862916683627755976004891635966487228870391846e-01,-1.275359438191453606212255600382832199102267622948e-03,1.000000000000000020816681711721685132943093776703e-02
1.800000000000000210942374678779742680490016937256e-01,1.499845497507667768655181816939148120582103729248e-01,-1.350424401180383426890330156311392784118652343750e-03,1.000000000000000020816681711721685132943093776703e-02
1.900000000000000299760216648792265914380550384521e-01,1.499827002919092433508296835498185828328132629395e-01,-1.425496698752390205278128831878348137252032756805e-03,1.000000000000000020816681711721685132943093776703e-02
2.000000000000000388578058618804789148271083831787e-01,1.499807427231736323136601640726439654827117919922e-01,-1.500576713809005603358914804346113669453188776970e-03,1.000000000000000020816681711721685132943093776703e-02
2.100000000000000477395900588817312382161617279053e-01,1.499786764756664558806420473047182895243167877197e-01,-1.575664827968199484600764215258550393627956509590e-03,1.000000000000000020816681711721685132943093776703e-02
2.200000000000000566213742558829835616052150726318e-01,1.499765009802223880708282877094461582601070404053e-01,-1.650761421564776515111261367962924850871786475182e-03,1.000000000000000020816681711721685132943093776703e-02
2.300000000000000655031584528842358849942684173584e-01,1.499742156674093718216056458913953974843025207520e-01,-1.725866873650772547951759428030982235213741660118e-03,1.000000000000000020816681711721685132943093776703e-02
2.400000000000000743849426498854882083833217620850e-01,1.499718199675338370369104268320370465517044067383e-01,-1.800981561995849923249468638175585510907694697380e-03,1.000000000000000020816681711721685132943093776703e-02
2.500000000000000555111512312578270211815834045410e-01,1.499693133106458631242929868676583282649517059326e-01,-1.876105863087692985149979030268241331214085221291e-03,1.000000000000000020816681711721685132943093776703e-02
2.600000000000000643929354282590793445706367492676e-01,1.499666951265443692875578562961891293525695800781e-01,-1.951240152132402297727176154751305148238316178322e-03,1.000000000000000020816681711721685132943093776703e-02
2.700000000000000732747196252603316679596900939941e-01,1.499639648447824435972819401285960339009761810303e-01,-2.026384803054889077733591307151073124259710311890e-03,1.000000000000000020816681711721685132943093776703e-02
2.800000000000000821565038222615839913487434387207e-01,1.499611218946724777723034094378817826509475708008e-01,-2.101540188499269844191186251691760844551026821136e-03,1.000000000000000020816681711721685132943093776703e-02
2.900000000000000910382880192628363147377967834473e-01,1.499581657052915795169667489972198382019996643066e-01,-2.176706679829259333258661968102387618273496627808e-03,1.000000000000000020816681711721685132943093776703e-02
3.000000000000000999200722162640886381268501281738e-01,1.499550957054868738360653424024349078536033630371e-01,-2.251884647128565147822243375230755191296339035034e-03,1.000000000000000020816681711721685132943093776703e-02
3.100000000000001088018564132653409615159034729004e-01,1.499519113238807765942084415655699558556079864502e-01,-2.327074459201282190246029557556539657525718212128e-03,1.000000000000000020816681711721685132943093776703e-02
3.200000000000001176836406102665932849049568176270e-01,1.499486119888764623642174456108477897942066192627e-01,-2.402276483572285143558433517796402156818658113480e-03,1.000000000000000020816681711721685132943093776703e-02
3.300000000000001265654248072678456082940101623535e-01,1.499451971286631934976441016260650940239429473877e-01,-2.477491086487624855766442877325061999727040529251e-03,1.000000000000000020816681711721685132943093776703e-02
3.400000000000001354472090042690979316830635070801e-01,1.499416661712217879731667835585540160536766052246e-01,-2.552718632914920821042059628780407365411520004272e-03,1.000000000000000020816681711721685132943093776703e-02
3.500000000000001443289932012703502550721168518066e-01,1.499380185443300872449867711111437529325485229492e-01,-2.627959486543758431398298824888115632347762584686e-03,1.000000000000000020816681711721685132943093776703e-02
3.600000000000001532107773982716025784611701965332e-01,1.499342536755684240912245286381221376359462738037e-01,-2.703214009786083192599104307873858488164842128754e-03,1.000000000000000020816681711721685132943093776703e-02
3.700000000000001620925615952728549018502235412598e-01,1.499303709923251182178915996701107360422611236572e-01,-2.778482563776597542154478404086148657370358705521e-03,1.000000000000000020816681711721685132943093776703e-02
3.800000000000001709743457922741072252392768859863e-01,1.499263699218019996184381170678534545004367828369e-01,-2.853765508373157233634742624417413026094436645508e-03,1.000000000000000020816681711721685132943093776703e-02
3.900000000000001798561299892753595486283302307129e-01,1.499222498910200429556027756916591897606849670410e-01,-2.929063202157169889389143335733933781739324331284e-03,1.000000000000000020816681711721685132943093776703e-02
4.000000000000001887379141862766118720173835754395e-01,1.499180103268249186765359581841039471328258514404e-01,-3.004376002433993119583588438104015949647873640060e-03,1.000000000000000020816681711721685132943093776703e-02
4.100000000000001976196983832778641954064369201660e-01,1.499136506558925441279228607527329586446285247803e-01,-3.079704265233334375961860018833249341696500778198e-03,1.000000000000000020816681711721685132943093776703e-02
4.200000000000002065014825802791165187954902648926e-01,1.499091703047348567157115439840708859264850616455e-01,-3.155048345309652106649433989105091313831508159637e-03,1.000000000000000020816681711721685132943093776703e-02
4.300000000000002153832667772803688421845436096191e-01,1.499045686997053927758116742552374489605426788330e-01,-3.230408596142556910957299720621449523605406284332e-03,1.000000000000000020816681711721685132943093776703e-02
4.400000000000002242650509742816211655735969543457e-01,1.498998452670050607338225745479576289653778076172e-01,-3.305785369937215729951862641655679908581078052521e-03,1.000000000000000020816681711721685132943093776703e-02
4.500000000000002331468351712828734889626502990723e-01,1.498949994326877754868831971180043183267116546631e-01,-3.381179017624756470705715827307358267717063426971e-03,1.000000000000000020816681711721685132943093776703e-02
4.600000000000002420286193682841258123517036437988e-01,1.498900306226663148301270211959490552544593811035e-01,-3.456589888862674365271887566564146254677325487137e-03,1.000000000000000020816681711721685132943093776703e-02
4.700000000000002509104035652853781357407569885254e-01,1.498849382627180648608344881722587160766124725342e-01,-3.532018332035238763338957923565430974122136831284e-03,1.000000000000000020816681711721685132943093776703e-02
4.800000000000002597921877622866304591298103332520e-01,1.498797217784907931381610524113057181239128112793e-01,-3.607464694253903828013996246681927004829049110413e-03,1.000000000000000020816681711721685132943093776703e-02
4.900000000000002686739719592878827825188636779785e-01,1.498743805955085328651676945810322649776935577393e-01,-3.682929321357720098967236665998825628776103258133e-03,1.000000000000000020816681711721685132943093776703e-02
5.000000000000002220446049250313080847263336181641e-01,1.498689141391774670708514349826145917177200317383e-01,-3.758412557913747356619360573404264869168400764465e-03,1.000000000000000020816681711721685132943093776703e-02
