time,u0,u1,tau
0.000000000000000000000000000000000000000000000000e+00,-3.499999999999999777955395074968691915273666381836e-01,2.000000000000000666133814775093924254179000854492e-01,1.000000000000000020816681711721685132943093776703e-02
1.000000000000000020816681711721685132943093776703e-02,-3.486182649559316226728356014064047485589981079102e-01,2.021379153932161276685519624152220785617828369141e-01,1.000000000000000020816681711721685132943093776703e-02
2.000000000000000041633363423443370265886187553406e-02,-3.472219609761564851346804516651900485157966613770e-01,2.042666749519768953913256837040535174310207366943e-01,1.000000000000000020816681711721685132943093776703e-02
2.999999999999999888977697537484345957636833190918e-02,-3.458111604897440849448742028471315279603004455566e-01,2.063862036734688543138105387697578407824039459229e-01,1.000000000000000020816681711721685132943093776703e-02
4.000000000000000083266726846886740531772375106812e-02,-3.443859364303616943381314285943517461419105529785e-01,2.084964275662060939620090493917814455926418304443e-01,1.000000000000000020816681711721685132943093776703e-02
5.000000000000000277555756156289135105907917022705e-02,-3.429463622155653479417480866686673834919929504395e-01,2.105972736549128476735148751686210744082927703857e-01,1.000000000000000020816681711721685132943093776703e-02
6.000000000000000471844785465691529680043458938599e-02,-3.414925117259904885358423598518129438161849975586e-01,2.126886699849139250595442263147560879588127136230e-01,1.000000000000000020816681711721685132943093776703e-02
7.000000000000000666133814775093924254179000854492e-02,-3.400244592844531288378107092285063117742538452148e-01,2.147705456260310397098578505392652004957199096680e-01,1.000000000000000020816681711721685132943093776703e-02
8.000000000000000166533453693773481063544750213623e-02,-3.385422796349719654074306163238361477851867675781e-01,2.168428306759831170058561156110954470932483673096e-01,1.000000000000000020816681711721685132943093776703e-02
8.999999999999999666933092612453037872910499572754e-02,-3.370460479217233240589735032699536532163619995117e-01,2.189054562632887224182809404737781733274459838867e-01,1.000000000000000020816681711721685132943093776703e-02
9.999999999999999167332731531132594682276248931885e-02,-3.355358396679385957206420698639703914523124694824e-01,2.209583545496695833332267966397921554744243621826e-01,1.000000000000000020816681711721685132943093776703e-02
1.099999999999999866773237044981215149164199829102e-01,-3.340117307547558755942418429185636341571807861328e-01,2.230014587319537611165287671610713005065917968750e-01,1.000000000000000020816681711721685132943093776703e-02
1.199999999999999816813200936849170830100774765015e-01,-3.324737974000366302895770331815583631396293640137e-01,2.250347030434777240159860411949921399354934692383e-01,1.000000000000000020816681711721685132943093776703e-02
1.299999999999999766853164828717126511037349700928e-01,-3.309221161371576069853972512646578252315521240234e-01,2.270580227549868768122109941032249480485916137695e-01,1.000000000000000020816681711721685132943093776703e-02
1.399999999999999855671006798729649744927883148193e-01,-3.293567637937893644028974904358619824051856994629e-01,2.290713541750340198621671561340917833149433135986e-01,1.000000000000000020816681711721685132943093776703e-02
1.499999999999999944488848768742172978818416595459e-01,-3.277778174706720837328077777783619239926338195801e-01,2.310746346498756820242448384306044317781925201416e-01,1.000000000000000020816681711721685132943093776703e-02
1.600000000000000033306690738754696212708950042725e-01,-3.261853545203989290790502764139091596007347106934e-01,2.330678025628664662427524945087498053908348083496e-01,1.000000000000000020816681711721685132943093776703e-02
1.700000000000000122124532708767219446599483489990e-01,-3.245794525262182816938150153873721137642860412598e-01,2.350507973333521294367898235577740706503391265869e-01,1.000000000000000020816681711721685132943093776703e-02
1.800000000000000210942374678779742680490016937256e-01,-3.229601892808649510335783361369976773858070373535e-01,2.370235594150614799602294624492060393095016479492e-01,1.000000000000000020816681711721685132943093776703e-02
1.900000000000000299760216648792265914380550384521e-01,-3.213276427654310762882516883109929040074348449707e-01,2.389860302939985636783148947870358824729919433594e-01,1.000000000000000020816681711721685132943093776703e-02
2.000000000000000388578058618804789148271083831787e-01,-3.196818911282872099910434826597338542342185974121e-01,2.409381524858359990837186614953679963946342468262e-01,1.000000000000000020816681711721685132943093776703e-02
2.100000000000000477395900588817312382161617279053e-01,-3.180230126640637977608605524437734857201576232910e-01,2.428798695328108492308416543892235495150089263916e-01,1.000000000000000020816681711721685132943093776703e-02
2.200000000000000566213742558829835616052150726318e-01,-3.163510857927037678294368561182636767625808715820e-01,2.448111260001247513340416617211303673684597015381e-01,1.000000000000000020816681711721685132943093776703e-02
2.300000000000000655031584528842358849942684173584e-01,-3.146661890385962223604110477026551961898803710938e-01,2.467318674718500526310549503250513225793838500977e-01,1.000000000000000020816681711721685132943093776703e-02
2.400000000000000743849426498854882083833217620850e-01,-3.129684010098012780787257725023664534091949462891e-01,2.486420405463440896909332877839915454387664794922e-01,1.000000000000000020816681711721685132943093776703e-02
2.500000000000000555111512312578270211815834045410e-01,-3.112578003773762147510240083647659048438072204590e-01,2.505415928311738871236968861921923235058784484863e-01,1.000000000000000020816681711721685132943093776703e-02
2.600000000000000643929354282590793445706367492676e-01,-3.095344658548133676134739289409480988979339599609e-01,2.524304729375537181823574428563006222248077392578e-01,1.000000000000000020816681711721685132943093776703e-02
2.700000000000000732747196252603316679596900939941e-01,-3.077984761775987565535217527212807908654212951660e-01,2.543086304742984693483265346003463491797447204590e-01,1.000000000000000020816681711721685132943093776703e-02
2.800000000000000821565038222615839913487434387207e-01,-3.060499100829020546754577480896841734647750854492e-01,2.561760160412954179243172347923973575234413146973e-01,1.000000000000000020816681711721685132943093776703e-02
2.900000000000000910382880192628363147377967834473e-01,-3.042888462894070000785973206802736967802047729492e-01,2.580325812224977810593884441914269700646400451660e-01,1.000000000000000020816681711721685132943093776703e-02
3.000000000000000999200722162640886381268501281738e-01,-3.025153634772923538776012719608843326568603515625e-01,2.598782785784433668752058110840152949094772338867e-01,1.000000000000000020816681711721685132943093776703e-02
3.100000000000001088018564132653409615159034729004e-01,-3.007295402683722307379809990379726514220237731934e-01,2.617130616383018248960468099539866670966148376465e-01,1.000000000000000020816681711721685132943093776703e-02
3.200000000000001176836406102665932849049568176270e-01,-2.989314552064056274005565683182794600725173950195e-01,2.635368848914541040073800104437395930290222167969e-01,1.000000000000000020816681711721685132943093776703e-02
3.300000000000001265654248072678456082940101623535e-01,-2.971211867375841420013671267952304333448410034180e-01,2.653497037786083367905121122021228075027465820312e-01,1.000000000000000020816681711721685132943093776703e-02
3.400000000000001354472090042690979316830635070801e-01,-2.952988131912071545492892710171872749924659729004e-01,2.671514746824559249915864711510948836803436279297e-01,1.000000000000000020816681711721685132943093776703e-02
3.500000000000001443289932012703502550721168518066e-01,-2.934644127605531283009554499585647135972976684570e-01,2.689421549178721004835779240238480269908905029297e-01,1.000000000000000020816681711721685132943093776703e-02
3.600000000000001532107773982716025784611701965332e-01,-2.916180634839562468840767905930988490581512451172e-01,2.707217027216659022137434931210009381175041198730e-01,1.000000000000000020816681711721685132943093776703e-02
3.700000000000001620925615952728549018502235412598e-01,-2.897598432260967138418550348433200269937515258789e-01,2.724900772418833438948126968170981854200363159180e-01,1.000000000000000020816681711721685132943093776703e-02
3.800000000000001709743457922741072252392768859863e-01,-2.878898296595137629161342829320346936583518981934e-01,2.742472385266692680438893603422911837697029113770e-01,1.000000000000000020816681711721685132943093776703e-02
3.900000000000001798561299892753595486283302307129e-01,-2.860081002463493171639186130050802603363990783691e-01,2.759931475126926048169195837544975802302360534668e-01,1.000000000000000020816681711721685132943093776703e-02
4.000000000000001887379141862766118720173835754395e-01,-2.841147322203310121579988845041953027248382568359e-01,2.777277660131396985754292927595088258385658264160e-01,1.000000000000000020816681711721685132943093776703e-02
4.100000000000001976196983832778641954064369201660e-01,-2.822098025690026323886172576749231666326522827148e-01,2.794510567052817529010155794821912422776222229004e-01,1.000000000000000020816681711721685132943093776703e-02
4.200000000000002065014825802791165187954902648926e-01,-2.802933880162096769161905740475049242377281188965e-01,2.811629831176207239273878712992882356047630310059e-01,1.000000000000000020816681711721685132943093776703e-02
4.300000000000002153832667772803688421845436096191e-01,-2.783655650048486585035334428539499640464782714844e-01,2.828635096166203233281066786730661988258361816406e-01,1.000000000000000020816681711721685132943093776703e-02
4.400000000000002242650509742816211655735969543457e-01,-2.764264096798871861437874031253159046173095703125e-01,2.845526013930266273632696538697928190231323242188e-01,1.000000000000000020816681711721685132943093776703e-02
4.500000000000002331468351712828734889626502990723e-01,-2.744759978716629356121359251119429245591163635254e-01,2.862302244477848423009902489866362884640693664551e-01,1.000000000000000020816681711721685132943093776703e-02
4.600000000000002420286193682841258123517036437988e-01,-2.725144050794684469352091582550201565027236938477e-01,2.878963455775578883510945615853415802121162414551e-01,1.000000000000000020816681711721685132943093776703e-02
4.700000000000002509104035652853781357407569885254e-01,-2.705417064554297978951069580944022163748741149902e-01,2.895509323598525197596131874888669699430465698242e-01,1.000000000000000020816681711721685132943093776703e-02
4.800000000000002597921877622866304591298103332520e-01,-2.685579767886858149061879430519184097647666931152e-01,2.911939531377594203576109066489152610301971435547e-01,1.000000000000000020816681711721685132943093776703e-02
4.900000000000002686739719592878827825188636779785e-01,-2.665632904898748156696797195763792842626571655273e-01,2.928253770043134363021408717031590640544891357422e-01,1.000000000000000020816681711721685132943093776703e-02
5.000000000000002220446049250313080847263336181641e-01,-2.645577215759361555669215704256203025579452514648e-01,2.944451737864799967248075063253054395318031311035e-01,1.000000000000000020816681711721685132943093776703e-02
