time,u0,u1,tau
0.000000000000000000000000000000000000000000000000e+00,-3.499999999999999777955395074968691915273666381836e-01,5.000000000000004440892098500626161694526672363281e-02,1.000000000000000020816681711721685132943093776703e-02
1.000000000000000020816681711721685132943093776703e-02,-3.497279735248671195257941235468024387955665588379e-01,5.161087153749326777996131454528949689120054244995e-02,1.000000000000000020816681711721685132943093776703e-02
2.000000000000000041633363423443370265886187553406e-02,-3.494471214469242470457288618490565568208694458008e-01,5.322034121782005106071622435592871624976396560669e-02,1.000000000000000020816681711721685132943093776703e-02
2.999999999999999888977697537484345957636833190918e-02,-3.491574452275787443511489982483908534049987792969e-01,5.482836721353544912060939964248973410576581954956e-02,1.000000000000000020816681711721685132943093776703e-02
4.000000000000000083266726846886740531772375106812e-02,-3.488589467582283720759050993365235626697540283203e-01,5.643490771166622538279611376310640480369329452515e-02,1.000000000000000020816681711721685132943093776703e-02
5.000000000000000277555756156289135105907917022705e-02,-3.485516283603339871000059702055295929312705993652e-01,5.803992092048081835597983513252984266728162765503e-02,1.000000000000000020816681711721685132943093776703e-02
6.000000000000000471844785465691529680043458938599e-02,-3.482354927853595349951376647368306294083595275879e-01,5.964336507626220168498676343915576580911874771118e-02,1.000000000000000020816681711721685132943093776703e-02
7.000000000000000666133814775093924254179000854492e-02,-3.479105432145789822406811708788154646754264831543e-01,6.124519845008109114603556122347072232514619827271e-02,1.000000000000000020816681711721685132943093776703e-02
8.000000000000000166533453693773481063544750213623e-02,-3.475767832587506322994386209757067263126373291016e-01,6.284537935456679935697366090607829391956329345703e-02,1.000000000000000020816681711721685132943093776703e-02
8.999999999999999666933092612453037872910499572754e-02,-3.472342169576584369750094083428848534822463989258e-01,6.444386615067312917837227814743528142571449279785e-02,1.000000000000000020816681711721685132943093776703e-02
9.999999999999999167332731531132594682276248931885e-02,-3.468828487795206916288748288934584707021713256836e-01,6.604061725443675923141739758648327551782131195068e-02,1.000000000000000020816681711721685132943093776703e-02
1.099999999999999866773237044981215149164199829102e-01,-3.465226836202659477237375540426000952720642089844e-01,6.763559114372533209724736025236779823899269104004e-02,1.000000000000000020816681711721685132943093776703e-02
1.199999999999999816813200936849170830100774765015e-01,-3.461537268026764757600233224366093054413795471191e-01,6.922874636497282352376458902654121629893779754639e-02,1.000000000000000020816681711721685132943093776703e-02
1.299999999999999766853164828717126511037349700928e-01,-3.457759840753996671836034693114925175905227661133e-01,7.082004153989933381563304237715783528983592987061e-02,1.000000000000000020816681711721685132943093776703e-02
1.399999999999999855671006798729649744927883148193e-01,-3.453894616118272087312845997075783088803291320801e-01,7.240943537221290748906454837197088636457920074463e-02,1.000000000000000020816681711721685132943093776703e-02
1.499999999999999944488848768742172978818416595459e-01,-3.449941660088426953478801806340925395488739013672e-01,7.399688665429057787825684044946683570742607116699e-02,1.000000000000000020816681711721685132943093776703e-02
1.600000000000000033306690738754696212708950042725e-01,-3.445901042854384033198300585354445502161979675293e-01,7.558235427383612481389008053156430833041667938232e-02,1.000000000000000020816681711721685132943093776703e-02
1.700000000000000122124532708767219446599483489990e-01,-3.441772838812006130027043582231272011995315551758e-01,7.716579722051192247178619254555087536573410034180e-02,1.000000000000000020816681711721685132943093776703e-02
1.800000000000000210942374678779742680490016937256e-01,-3.437557126546652574994311635236954316496849060059e-01,7.874717459254222673425971379401744343340396881104e-02,1.000000000000000020816681711721685132943093776703e-02
1.900000000000000299760216648792265914380550384521e-01,-3.433253988815435642223405920958612114191055297852e-01,8.032644560328540406235475757057429291307926177979e-02,1.000000000000000020816681711721685132943093776703e-02
2.000000000000000388578058618804789148271083831787e-01,-3.428863512528184664951425020262831822037696838379e-01,8.190356958777240958813337101673823781311511993408e-02,1.000000000000000020816681711721685132943093776703e-02
2.100000000000000477395900588817312382161617279053e-01,-3.424385788727128399067112241027643904089927673340e-01,8.347850600920905805857330506114521995186805725098e-02,1.000000000000000020816681711721685132943093776703e-02
2.200000000000000566213742558829835616052150726318e-01,-3.419820912565296189278285510226851329207420349121e-01,8.505121446543942309581609606539132073521614074707e-02,1.000000000000000020816681711721685132943093776703e-02
2.300000000000000655031584528842358849942684173584e-01,-3.415168983283652370808169962401734665036201477051e-01,8.662165469536796391647470727548352442681789398193e-02,1.000000000000000020816681711721685132943093776703e-02
2.400000000000000743849426498854882083833217620850e-01,-3.410430104186964461732145537098404020071029663086e-01,8.818978658533765946359039844537619501352310180664e-02,1.000000000000000020816681711721685132943093776703e-02
2.500000000000000555111512312578270211815834045410e-01,-3.405604382618421799300278962618904188275337219238e-01,8.975557017546187399403834206168539822101593017578e-02,1.000000000000000020816681711721685132943093776703e-02
2.600000000000000643929354282590793445706367492676e-01,-3.400691929933007395803201688977424055337905883789e-01,9.131896566590724795275946235051378607749938964844e-02,1.000000000000000020816681711721685132943093776703e-02
2.700000000000000732747196252603316679596900939941e-01,-3.395692861469634671323092334205284714698791503906e-01,9.287993342312526878767897642319439910352230072021e-02,1.000000000000000020816681711721685132943093776703e-02
2.800000000000000821565038222615839913487434387207e-01,-3.390607296522060165600009895570110529661178588867e-01,9.443843398603005145908184658765094354748725891113e-02,1.000000000000000020816681711721685132943093776703e-02
2.900000000000000910382880192628363147377967834473e-01,-3.385435358308581110797774726961506530642509460449e-01,9.599442807211987227500316066652885638177394866943e-02,1.000000000000000020816681711721685132943093776703e-02
3.000000000000000999200722162640886381268501281738e-01,-3.380177173940530077622668159165186807513236999512e-01,9.754787658354004131755488060662173666059970855713e-02,1.000000000000000020816681711721685132943093776703e-02
3.100000000000001088018564132653409615159034729004e-01,-3.374832874389575576579147764277877286076545715332e-01,9.909874061308479586962505436531500890851020812988e-02,1.000000000000000020816681711721685132943093776703e-02
3.200000000000001176836406102665932849049568176270e-01,-3.369402594453846377930972266767639666795730590820e-01,1.006469814501357445957197001007443759590387344360e-01,1.000000000000000020816681711721685132943093776703e-02
3.300000000000001265654248072678456082940101623535e-01,-3.363886472722884546371346914384048432111740112305e-01,1.021925605865346559086859201670449692755937576294e-01,1.000000000000000020816681711721685132943093776703e-02
3.400000000000001354472090042690979316830635070801e-01,-3.358284651541443843747458686266327276825904846191e-01,1.037354397223881619094498773847590200603008270264e-01,1.000000000000000020816681711721685132943093776703e-02
3.500000000000001443289932012703502550721168518066e-01,-3.352597276972147932738721465284470468759536743164e-01,1.052755807718021990870838067166914697736501693726e-01,1.000000000000000020816681711721685132943093776703e-02
3.600000000000001532107773982716025784611701965332e-01,-3.346824498757019483718977426178753376007080078125e-01,1.068129458685438681886381573349353857338428497314e-01,1.000000000000000020816681711721685132943093776703e-02
3.700000000000001620925615952728549018502235412598e-01,-3.340966470277896283036511704267468303442001342773e-01,1.083474973716284928126896147659863345324993133545e-01,1.000000000000000020816681711721685132943093776703e-02
3.800000000000001709743457922741072252392768859863e-01,-3.335023348515744889830614283710019662976264953613e-01,1.098791978708297534250704075020621530711650848389e-01,1.000000000000000020816681711721685132943093776703e-02
3.900000000000001798561299892753595486283302307129e-01,-3.328995294008894045845181608456186950206756591797e-01,1.114080101921106902285174555800040252506732940674e-01,1.000000000000000020816681711721685132943093776703e-02
4.000000000000001887379141862766118720173835754395e-01,-3.322882470810195054689017979399068281054496765137e-01,1.129338974029734238291311498869617935270071029663e-01,1.000000000000000020816681711721685132943093776703e-02
4.100000000000001976196983832778641954064369201660e-01,-3.316685046443130779891816928284242749214172363281e-01,1.144568228177255397870482056532637216150760650635e-01,1.000000000000000020816681711721685132943093776703e-02
4.200000000000002065014825802791165187954902648926e-01,-3.310403191856886029320605757675366476178169250488e-01,1.159767500026610692609452257784141693264245986938e-01,1.000000000000000020816681711721685132943093776703e-02
4.300000000000002153832667772803688421845436096191e-01,-3.304037081380397089525047249480849131941795349121e-01,1.174936427811540812227164565229031722992658615112e-01,1.000000000000000020816681711721685132943093776703e-02
4.400000000000002242650509742816211655735969543457e-01,-3.297586892675398173579992544546257704496383666992e-01,1.190074652386627768185789477684011217206716537476e-01,1.000000000000000020816681711721685132943093776703e-02
4.500000000000002331468351712828734889626502990723e-01,-3.291052806688478105101580695190932601690292358398e-01,1.205181817276423233975535254103306215256452560425e-01,1.000000000000000020816681711721685132943093776703e-02
4.600000000000002420286193682841258123517036437988e-01,-3.284435007602170553120402018976164981722831726074e-01,1.220257568723643326613625958998454734683036804199e-01,1.000000000000000020816681711721685132943093776703e-02
4.700000000000002509104035652853781357407569885254e-01,-3.277733682785090585376508443005150184035301208496e-01,1.235301555736412343344809983136656228452920913696e-01,1.000000000000000020816681711721685132943093776703e-02
4.800000000000002597921877622866304591298103332520e-01,-3.270949022741137524050714091572444885969161987305e-01,1.250313430134536440974102333711925894021987915039e-01,1.000000000000000020816681711721685132943093776703e-02
4.900000000000002686739719592878827825188636779785e-01,-3.264081221057783532835117057402385398745536804199e-01,1.265292846594789633041244769628974609076976776123e-01,1.000000000000000020816681711721685132943093776703e-02
5.000000000000002220446049250313080847263336181641e-01,-3.257130474353465143799724046402843669056892395020e-01,1.280239462695194063712733623106032609939575195312e-01,1.000000000000000020816681711721685132943093776703e-02
