time,u0,u1,tau
0.000000000000000000000000000000000000000000000000e+00,-2.999999999999999888977697537484345957636833190918e-01,1.500000000000000222044604925031308084726333618164e-01,1.000000000000000020816681711721685132943093776703e-02
1.000000000000000020816681711721685132943093776703e-02,-2.992646614590118714360755802772473543882369995117e-01,1.512316653033848323772758703853469341993331909180e-01,1.000000000000000020816681711721685132943093776703e-02
2.000000000000000041633363423443370265886187553406e-02,-2.985231626901406754015511069155763834714889526367e-01,1.524600540342686272321515161820570938289165496826e-01,1.000000000000000020816681711721685132943093776703e-02
2.999999999999999888977697537484345957636833190918e-02,-2.977755208342311443736605269805295392870903015137e-01,1.536851472960908404630231416376773267984390258789e-01,1.000000000000000020816681711721685132943093776703e-02
4.000000000000000083266726846886740531772375106812e-02,-2.970217531690390044829541693616192787885665893555e-01,1.549069264150877145436169257664005272090435028076e-01,1.000000000000000020816681711721685132943093776703e-02
5.000000000000000277555756156289135105907917022705e-02,-2.962618771054290611743908812059089541435241699219e-01,1.561253729420528646443244724650867283344268798828e-01,1.000000000000000020816681711721685132943093776703e-02
6.000000000000000471844785465691529680043458938599e-02,-2.954959101835379353673260993673466145992279052734e-01,1.573404686540285646323411583580309525132179260254e-01,1.000000000000000020816681711721685132943093776703e-02
7.000000000000000666133814775093924254179000854492e-02,-2.947238700689027712797951608081348240375518798828e-01,1.585521955559268669766481707483762875199317932129e-01,1.000000000000000020816681711721685132943093776703e-02
8.000000000000000166533453693773481063544750213623e-02,-2.939457745485566930732090895617147907614707946777e-01,1.597605358820800847130527699846425093710422515869e-01,1.000000000000000020816681711721685132943093776703e-02
8.999999999999999666933092612453037872910499572754e-02,-2.931616415270925646296973354765214025974273681641e-01,1.609654720977201636245013105508405715227127075195e-01,1.000000000000000020816681711721685132943093776703e-02
9.999999999999999167332731531132594682276248931885e-02,-2.923714890226961071739708586392225697636604309082e-01,1.621669869003863062584258614151622168719768524170e-01,1.000000000000000020816681711721685132943093776703e-02
1.099999999999999866773237044981215149164199829102e-01,-2.915753351631494294515789533761562779545783996582e-01,1.633650632212604314474901912035420536994934082031e-01,1.000000000000000020816681711721685132943093776703e-02
1.199999999999999816813200936849170830100774765015e-01,-2.907731981818063582423405932786408811807632446289e-01,1.645596842264300252445252681354759261012077331543e-01,1.000000000000000020816681711721685132943093776703e-02
1.299999999999999766853164828717126511037349700928e-01,-2.899650964135408459654286161821801215410232543945e-01,1.657508333180778281601419621438253670930862426758e-01,1.000000000000000020816681711721685132943093776703e-02
1.399999999999999855671006798729649744927883148193e-01,-2.891510482906692325322239867091411724686622619629e-01,1.669384941355979701249623303738189861178398132324e-01,1.000000000000000020816681711721685132943093776703e-02
1.499999999999999944488848768742172978818416595459e-01,-2.883310723388481933149307678831974044442176818848e-01,1.681226505566382478651377141432021744549274444580e-01,1.000000000000000020816681711721685132943093776703e-02
1.600000000000000033306690738754696212708950042725e-01,-2.875051871729488173201616518781520426273345947266e-01,1.693032866980680450907925660430919378995895385742e-01,1.000000000000000020816681711721685132943093776703e-02
1.700000000000000122124532708767219446599483489990e-01,-2.866734114929089249912408376985695213079452514648e-01,1.704803869168715624304866196325747296214103698730e-01,1.000000000000000020816681711721685132943093776703e-02
1.800000000000000210942374678779742680490016937256e-01,-2.858357640795639587061316433391766622662544250488e-01,1.716539358109659962892123985511716455221176147461e-01,1.000000000000000020816681711721685132943093776703e-02
1.900000000000000299760216648792265914380550384521e-01,-2.849922637904582778389794839313253760337829589844e-01,1.728239182199444723408987556467764079570770263672e-01,1.000000000000000020816681711721685132943093776703e-02
2.000000000000000388578058618804789148271083831787e-01,-2.841429295556378020748411472595762461423873901367e-01,1.739903192257432618106349764275364577770233154297e-01,1.000000000000000020816681711721685132943093776703e-02
2.100000000000000477395900588817312382161617279053e-01,-2.832877803734253907563811480940785259008407592773e-01,1.751531241532331972798885999509366229176521301270e-01,1.000000000000000020816681711721685132943093776703e-02
2.200000000000000566213742558829835616052150726318e-01,-2.824268353061796799075011676904978230595588684082e-01,1.763123185707348439255071070874691940844058990479e-01,1.000000000000000020816681711721685132943093776703e-02
2.300000000000000655031584528842358849942684173584e-01,-2.815601134760394308464981349970912560820579528809e-01,1.774678882904573151702010136432363651692867279053e-01,1.000000000000000020816681711721685132943093776703e-02
2.400000000000000743849426498854882083833217620850e-01,-2.806876340606538344779607996315462514758110046387e-01,1.786198193688606217222059058258309960365295410156e-01,1.000000000000000020816681711721685132943093776703e-02
2.500000000000000555111512312578270211815834045410e-01,-2.798094162889002700644880405889125540852546691895e-01,1.797680981069410544037623367330525070428848266602e-01,1.000000000000000020816681711721685132943093776703e-02
2.600000000000000643929354282590793445706367492676e-01,-2.789254794365909062570096921263029798865318298340e-01,1.809127110504398228130185088957659900188446044922e-01,1.000000000000000020816681711721685132943093776703e-02
2.700000000000000732747196252603316679596900939941e-01,-2.780358428221690325621295869495952501893043518066e-01,1.820536449899745057301458928122883662581443786621e-01,1.000000000000000020816681711721685132943093776703e-02
2.800000000000000821565038222615839913487434387207e-01,-2.771405258023964535141203668899834156036376953125e-01,1.831908869610933965343946283610421232879161834717e-01,1.000000000000000020816681711721685132943093776703e-02
2.900000000000000910382880192628363147377967834473e-01,-2.762395477680332223080483800004003569483757019043e-01,1.843244242442524383207569371734280139207839965820e-01,1.000000000000000020816681711721685132943093776703e-02
3.000000000000000999200722162640886381268501281738e-01,-2.753329281395106575835995954548707231879234313965e-01,1.854542443647149430052678553693112917244434356689e-01,1.000000000000000020816681711721685132943093776703e-02
3.100000000000001088018564132653409615159034729004e-01,-2.744206863625993086941434739856049418449401855469e-01,1.865803350923737335964602834792458452284336090088e-01,1.000000000000000020816681711721685132943093776703e-02
3.200000000000001176836406102665932849049568176270e-01,-2.735028419040724800836983376939315348863601684570e-01,1.877026844414958206552768160690902732312679290771e-01,1.000000000000000020816681711721685132943093776703e-02
3.300000000000001265654248072678456082940101623535e-01,-2.725794142473668135728814831963973119854927062988e-01,1.888212806703897517213164292115834541618824005127e-01,1.000000000000000020816681711721685132943093776703e-02
3.400000000000001354472090042690979316830635070801e-01,-2.716504228882410942880198945204028859734535217285e-01,1.899361122809952728829330226290039718151092529297e-01,1.000000000000000020816681711721685132943093776703e-02
3.500000000000001443289932012703502550721168518066e-01,-2.707158873304344459675974121637409552931785583496e-01,1.910471680183955522913663571671349927783012390137e-01,1.000000000000000020816681711721685132943093776703e-02
3.600000000000001532107773982716025784611701965332e-01,-2.697758270813248593356092897010967135429382324219e-01,1.921544368702520488856322344872751273214817047119e-01,1.000000000000000020816681711721685132943093776703e-02
3.700000000000001620925615952728549018502235412598e-01,-2.688302616475896633652098444144940003752708435059e-01,1.932579080661619153058694564606412313878536224365e-01,1.000000000000000020816681711721685132943093776703e-02
3.800000000000001709743457922741072252392768859863e-01,-2.678792105308683835218630520103033632040023803711e-01,1.943575710769381015285972580386442132294178009033e-01,1.000000000000000020816681711721685132943093776703e-02
3.900000000000001798561299892753595486283302307129e-01,-2.669226932234299853874404107045847922563552856445e-01,1.954534156138122702461856761146918870508670806885e-01,1.000000000000000020816681711721685132943093776703e-02
4.000000000000001887379141862766118720173835754395e-01,-2.659607292038448367321734622237272560596466064453e-01,1.965454316275605795016900856353458948433399200439e-01,1.000000000000000020816681711721685132943093776703e-02
4.100000000000001976196983832778641954064369201660e-01,-2.649933379326631643913003699708497151732444763184e-01,1.976336093075524713569279811054002493619918823242e-01,1.000000000000000020816681711721685132943093776703e-02
4.200000000000002065014825802791165187954902648926e-01,-2.640205388481006165690700981940608471632003784180e-01,1.987179390807226053716760816314490512013435363770e-01,1.000000000000000020816681711721685132943093776703e-02
4.300000000000002153832667772803688421845436096191e-01,-2.630423513617322628377337423444259911775588989258e-01,1.997984116104661866941683001641649752855300903320e-01,1.000000000000000020816681711721685132943093776703e-02
4.400000000000002242650509742816211655735969543457e-01,-2.620587948541962530768500982958357781171798706055e-01,2.008750177954577165184701925682020373642444610596e-01,1.000000000000000020816681711721685132943093776703e-02
4.500000000000002331468351712828734889626502990723e-01,-2.610698886709079125090227080363547429442405700684e-01,2.019477487683934702200616584377712570130825042725e-01,1.000000000000000020816681711721685132943093776703e-02
4.600000000000002420286193682841258123517036437988e-01,-2.600756521177857716331516257923794910311698913574e-01,2.030165958946578419475059718024567700922489166260e-01,1.000000000000000020816681711721685132943093776703e-02
4.700000000000002509104035652853781357407569885254e-01,-2.590761044569899751444097546482225880026817321777e-01,2.040815507709138332259612980124074965715408325195e-01,1.000000000000000020816681711721685132943093776703e-02
4.800000000000002597921877622866304591298103332520e-01,-2.580712649026749572200856164272408932447433471680e-01,2.051426052236179076171396218342124484479427337646e-01,1.000000000000000020816681711721685132943093776703e-02
4.900000000000002686739719592878827825188636779785e-01,-2.570611526167566607270487111236434429883956909180e-01,2.061997513074594889914692430465947836637496948242e-01,1.000000000000000020816681711721685132943093776703e-02
5.000000000000002220446049250313080847263336181641e-01,-2.560457867046957991519207098463084548711776733398e-01,2.072529813037252144347633020515786483883857727051e-01,1.000000000000000020816681711721685132943093776703e-02
