time,u0,u1,tau
0.000000000000000000000000000000000000000000000000e+00,-2.000000000000001776356839400250464677810668945312e-02,4.000000000000000777156117237609578296542167663574e-02,1.000000000000000020816681711721685132943093776703e-02
1.000000000000000020816681711721685132943093776703e-02,-1.998072563374380175571509710152895422652363777161e-02,3.999367473509264636621907129665487445890903472900e-02,1.000000000000000020816681711721685132943093776703e-02
2.000000000000000041633363423443370265886187553406e-02,-1.996130638587602715294799793355196015909314155579e-02,3.998750457534983732132971567807544488459825515747e-02,1.000000000000000020816681711721685132943093776703e-02
2.999999999999999888977697537484345957636833190918e-02,-1.994174221679029593290444211106660077348351478577e-02,3.998148952823970397885133820636838208884000778198e-02,1.000000000000000020816681711721685132943093776703e-02
4.000000000000000083266726846886740531772375106812e-02,-1.992203308608087378162032621276011923328042030334e-02,3.997562960206455656697599465587700251489877700806e-02,1.000000000000000020816681711721685132943093776703e-02
5.000000000000000277555756156289135105907917022705e-02,-1.990217895254088598111508190413587726652622222900e-02,3.996992480596178731744316792173776775598526000977e-02,1.000000000000000020816681711721685132943093776703e-02
6.000000000000000471844785465691529680043458938599e-02,-1.988217977416049941918885224367841146886348724365e-02,3.996437514990472394948994860897073522210121154785e-02,1.000000000000000020816681711721685132943093776703e-02
7.000000000000000666133814775093924254179000854492e-02,-1.986203550812512888534833166431781137362122535706e-02,3.995898064470346927601340780711325351148843765259e-02,1.000000000000000020816681711721685132943093776703e-02
8.000000000000000166533453693773481063544750213623e-02,-1.984174611081366418341431767657923046499490737915e-02,3.995374130200574080973296986485365778207778930664e-02,1.000000000000000020816681711721685132943093776703e-02
8.999999999999999666933092612453037872910499572754e-02,-1.982131153779669377468231061811820836737751960754e-02,3.994865713429767567488326562852307688444852828979e-02,1.000000000000000020816681711721685132943093776703e-02
9.999999999999999167332731531132594682276248931885e-02,-1.980073174383476311555263293939788127318024635315e-02,3.994372815490463551890698568058724049478769302368e-02,1.000000000000000020816681711721685132943093776703e-02
1.099999999999999866773237044981215149164199829102e-01,-1.978000668287663299516054848936619237065315246582e-02,3.993895437799198366857211794922477565705776214600e-02,1.000000000000000020816681711721685132943093776703e-02
1.199999999999999816813200936849170830100774765015e-01,-1.975913630805754828134723766197566874325275421143e-02,3.993433581856584840830137750344874802976846694946e-02,1.000000000000000020816681711721685132943093776703e-02
1.299999999999999766853164828717126511037349700928e-01,-1.973812057169753789165334012523089768365025520325e-02,3.992987249247387931960773244099982548505067825317e-02,1.000000000000000020816681711721685132943093776703e-02
1.399999999999999855671006798729649744927883148193e-01,-1.971695942529970782541859364300762536004185676575e-02,3.992556441640598280384821805455430876463651657104e-02,1.000000000000000020816681711721685132943093776703e-02
1.499999999999999944488848768742172978818416595459e-01,-1.969565281954856195145708852578536607325077056885e-02,3.992141160789502291050823146179027389734983444214e-02,1.000000000000000020816681711721685132943093776703e-02
1.600000000000000033306690738754696212708950042725e-01,-1.967420070430832973462642598860838916152715682983e-02,3.991741408531754992106144186436722520738840103149e-02,1.000000000000000020816681711721685132943093776703e-02
1.700000000000000122124532708767219446599483489990e-01,-1.965260302862131477907858823073183884844183921814e-02,3.991357186789445954389066173462197184562683105469e-02,1.000000000000000020816681711721685132943093776703e-02
1.800000000000000210942374678779742680490016937256e-01,-1.963085974070623990206385656165366526693105697632e-02,3.990988497569167986478433363117801491171121597290e-02,1.000000000000000020816681711721685132943093776703e-02
1.900000000000000299760216648792265914380550384521e-01,-1.960897078795662690220424906328844372183084487915e-02,3.990635342962080972517568966395629104226827621460e-02,1.000000000000000020816681711721685132943093776703e-02
2.000000000000000388578058618804789148271083831787e-01,-1.958693611693917632776695825214119395241141319275e-02,3.990297725143978485595752658809942658990621566772e-02,1.000000000000000020816681711721685132943093776703e-02
2.100000000000000477395900588817312382161617279053e-01,-1.956475567339216806161950046316633233800530433655e-02,3.989975646375346074457013401115546002984046936035e-02,1.000000000000000020816681711721685132943093776703e-02
2.200000000000000566213742558829835616052150726318e-01,-1.954242940222385843673791328001243527978658676147e-02,3.989669109001423713545264604363183025270700454712e-02,1.000000000000000020816681711721685132943093776703e-02
2.300000000000000655031584528842358849942684173584e-01,-1.951995724751091898507837640863726846873760223389e-02,3.989378115452265477491877732063585426658391952515e-02,1.000000000000000020816681711721685132943093776703e-02
2.400000000000000743849426498854882083833217620850e-01,-1.949733915249686824755492864369443850591778755188e-02,3.989102668242795052266913558014493901282548904419e-02,1.000000000000000020816681711721685132943093776703e-02
2.500000000000000555111512312578270211815834045410e-01,-1.947457505959051052291108874214842217043042182922e-02,3.988842769972862634109134205573354847729206085205e-02,1.000000000000000020816681711721685132943093776703e-02
2.600000000000000643929354282590793445706367492676e-01,-1.945166491036441278050794778664567274972796440125e-02,3.988598423327297665119672842592990491539239883423e-02,1.000000000000000020816681711721685132943093776703e-02
2.700000000000000732747196252603316679596900939941e-01,-1.942860864555337463421835764165734872221946716309e-02,3.988369631075961568855703376357269007712602615356e-02,1.000000000000000020816681711721685132943093776703e-02
2.800000000000000821565038222615839913487434387207e-01,-1.940540620505291566355587917769298655912280082703e-02,3.988156396073799098145329367071099113672971725464e-02,1.000000000000000020816681711721685132943093776703e-02
2.900000000000000910382880192628363147377967834473e-01,-1.938205752791778008203849026358511764556169509888e-02,3.987958721260886907344911378459073603153228759766e-02,1.000000000000000020816681711721685132943093776703e-02
3.000000000000000999200722162640886381268501281738e-01,-1.935856255236044834444619766600226284936070442200e-02,3.987776609662480042928223156195599585771560668945e-02,1.000000000000000020816681711721685132943093776703e-02
3.100000000000001088018564132653409615159034729004e-01,-1.933492121574966610131340871703287120908498764038e-02,3.987610064389058434075607806335028726607561111450e-02,1.000000000000000020816681711721685132943093776703e-02
3.200000000000001176836406102665932849049568176270e-01,-1.931113345460898703120911079622601391747593879700e-02,3.987459088636371995484353192296111956238746643066e-02,1.000000000000000020816681711721685132943093776703e-02
3.300000000000001265654248072678456082940101623535e-01,-1.928719920461532608135790667347464477643370628357e-02,3.987323685685480872953334596786589827388525009155e-02,1.000000000000000020816681711721685132943093776703e-02
3.400000000000001354472090042690979316830635070801e-01,-1.926311840059752311660190571274142712354660034180e-02,3.987203858902797076746438165173458401113748550415e-02,1.000000000000000020816681711721685132943093776703e-02
3.500000000000001443289932012703502550721168518066e-01,-1.923889097653492391559737484385550487786531448364e-02,3.987099611740123339398422785961884073913097381592e-02,1.000000000000000020816681711721685132943093776703e-02
3.600000000000001532107773982716025784611701965332e-01,-1.921451686555597504479919734876602888107299804688e-02,3.987010947734691973520781971274118404835462570190e-02,1.000000000000000020816681711721685132943093776703e-02
3.700000000000001620925615952728549018502235412598e-01,-1.918999599993682914078618750863824971020221710205e-02,3.986937870509198178492482611545710824429988861084e-02,1.000000000000000020816681711721685132943093776703e-02
3.800000000000001709743457922741072252392768859863e-01,-1.916532831109995366203335720456379931420087814331e-02,3.986880383771835428818874902390234638005495071411e-02,1.000000000000000020816681711721685132943093776703e-02
3.900000000000001798561299892753595486283302307129e-01,-1.914051372961277086570675010079867206513881683350e-02,3.986838491316326699154259927126986440271139144897e-02,1.000000000000000020816681711721685132943093776703e-02
4.000000000000001887379141862766118720173835754395e-01,-1.911555218518629778445827582800120580941438674927e-02,3.986812197021956383213847630031523294746875762939e-02,1.000000000000000020816681711721685132943093776703e-02
4.100000000000001976196983832778641954064369201660e-01,-1.909044360667380701990225588815519586205482482910e-02,3.986801504853598743238762835972011089324951171875e-02,1.000000000000000020816681711721685132943093776703e-02
4.200000000000002065014825802791165187954902648926e-01,-1.906518792206948753609196955949300900101661682129e-02,3.986806418861744277792880097877059597522020339966e-02,1.000000000000000020816681711721685132943093776703e-02
4.300000000000002153832667772803688421845436096191e-01,-1.903978505850712973912486347671801922842860221863e-02,3.986826943182525395670268153480719774961471557617e-02,1.000000000000000020816681711721685132943093776703e-02
4.400000000000002242650509742816211655735969543457e-01,-1.901423494225882096508861707206961000338196754456e-02,3.986863082037742089802634382067481055855751037598e-02,1.000000000000000020816681711721685132943093776703e-02
4.500000000000002331468351712828734889626502990723e-01,-1.898853749873364790690111192361655412241816520691e-02,3.986914839734880672272865353988891001790761947632e-02,1.000000000000000020816681711721685132943093776703e-02
4.600000000000002420286193682841258123517036437988e-01,-1.896269265247641985783211282523552654311060905457e-02,3.986982220667136672664909724517201539129018783569e-02,1.000000000000000020816681711721685132943093776703e-02
4.700000000000002509104035652853781357407569885254e-01,-1.893670032716640236336580471743218367919325828552e-02,3.987065229313432879187928392639150843024253845215e-02,1.000000000000000020816681711721685132943093776703e-02
4.800000000000002597921877622866304591298103332520e-01,-1.891056044561605087306332961816224269568920135498e-02,3.987163870238434604242883096958394162356853485107e-02,1.000000000000000020816681711721685132943093776703e-02
4.900000000000002686739719592878827825188636779785e-01,-1.888427292976978255634179504340863786637783050537e-02,3.987278148092567031657296183766447938978672027588e-02,1.000000000000000020816681711721685132943093776703e-02
5.000000000000002220446049250313080847263336181641e-01,-1.885783770070273077101852265968773281201720237732e-02,3.987408067612027012804887249330931808799505233765e-02,1.000000000000000020816681711721685132943093776703e-02
5.100000000000002309263891220325604081153869628906e-01,-1.883125467861953422632481647269742097705602645874e-02,3.987553633618795556614600172906648367643356323242e-02,1.000000000000000020816681711721685132943093776703e-02
5.200000000000002398081733190338127315044403076172e-01,-1.880452378285313655426058687680779257789254188538e-02,3.987714851020646850132678196132474113255739212036e-02,1.000000000000000020816681711721685132943093776703e-02
5.300000000000002486899575160350650548934936523438e-01,-1.877764493186357894205507079732342390343546867371e-02,3.987891724811155891305958220982574857771396636963e-02,1.000000000000000020816681711721685132943093776703e-02
5.400000000000002575717417130363173782825469970703e-01,-1.875061804323683439799097527611593250185251235962e-02,3.988084260069707509543945889163296669721603393555e-02,1.000000000000000020816681711721685132943093776703e-02
5.500000000000002664535259100375697016716003417969e-01,-1.872344303368362466999386128918558824807405471802e-02,3.988292461961497059608205972836003638803958892822e-02,1.000000000000000020816681711721685132943093776703e-02
5.600000000000002753353101070388220250606536865234e-01,-1.869611981903827879758495100759319029748439788818e-02,3.988516335737535278838095109676942229270935058594e-02,1.000000000000000020816681711721685132943093776703e-02
5.700000000000002842170943040400743484497070312500e-01,-1.866864831425757431659917529032099992036819458008e-02,3.988755886734649674929542584322916809469461441040e-02,1.000000000000000020816681711721685132943093776703e-02
5.800000000000002930988785010413266718387603759766e-01,-1.864102843341962009726664462050393922254443168640e-02,3.989011120375481750377488765479938592761754989624e-02,1.000000000000000020816681711721685132943093776703e-02
5.900000000000003019806626980425789952278137207031e-01,-1.861326008972272530450631222720403457060456275940e-02,3.989282042168487002475885105923225637525320053101e-02,1.000000000000000020816681711721685132943093776703e-02
6.000000000000003108624468950438313186168670654297e-01,-1.858534319548430305268915674332674825564026832581e-02,3.989568657707927290534399844545987434685230255127e-02,1.000000000000000020816681711721685132943093776703e-02
6.100000000000003197442310920450836420059204101562e-01,-1.855727766213976365206050900269474368542432785034e-02,3.989870972673866672542075662022398319095373153687e-02,1.000000000000000020816681711721685132943093776703e-02
6.200000000000003286260152890463359653949737548828e-01,-1.852906340024144254963189837326353881508111953735e-02,3.990188992832163078494644992133544292300939559937e-02,1.000000000000000020816681711721685132943093776703e-02
6.300000000000003375077994860475882887840270996094e-01,-1.850070031945753173951985104395134840160608291626e-02,3.990522724034457902053674160924856550991535186768e-02,1.000000000000000020816681711721685132943093776703e-02
6.400000000000003463895836830488406121730804443359e-01,-1.847218832857101117328468831146892625838518142700e-02,3.990872172218163510537536353695031721144914627075e-02,1.000000000000000020816681711721685132943093776703e-02
6.500000000000003552713678800500929355621337890625e-01,-1.844352733547861486473884440329129574820399284363e-02,3.991237343406451448801774972707789856940507888794e-02,1.000000000000000020816681711721685132943093776703e-02
6.600000000000003641531520770513452589511871337891e-01,-1.841471724718979005586128039340110262855887413025e-02,3.991618243708234398114953478398092556744813919067e-02,1.000000000000000020816681711721685132943093776703e-02
6.700000000000003730349362740525975823402404785156e-01,-1.838575796982568066884056179333128966391086578369e-02,3.992014879318151604481457184192549902945756912231e-02,1.000000000000000020816681711721685132943093776703e-02
6.800000000000003819167204710538499057292938232422e-01,-1.835664940861811422756488809682196006178855895996e-02,3.992427256516548061959781534824287518858909606934e-02,1.000000000000000020816681711721685132943093776703e-02
6.900000000000003907985046680551022291183471679688e-01,-1.832739146790861653468773795339075149968266487122e-02,3.992855381669453002091429993924975860863924026489e-02,1.000000000000000020816681711721685132943093776703e-02
7.000000000000003996802888650563545525074005126953e-01,-1.829798405114740900145875457383226603269577026367e-02,3.993299261228557689440421540894021745771169662476e-02,1.000000000000000020816681711721685132943093776703e-02
7.100000000000004085620730620576068758964538574219e-01,-1.826842706089245801925891043993033235892653465271e-02,3.993758901731191135464626995599246583878993988037e-02,1.000000000000000020816681711721685132943093776703e-02
7.200000000000004174438572590588591992855072021484e-01,-1.823872039880849657556005638525675749406218528748e-02,3.994234309800291649050762998740538023412227630615e-02,1.000000000000000020816681711721685132943093776703e-02
7.300000000000004263256414560601115226745605468750e-01,-1.820886396566608750324789411934034433215856552124e-02,3.994725492144379774828166773659177124500274658203e-02,1.000000000000000020816681711721685132943093776703e-02
7.400000000000004352074256530613638460636138916016e-01,-1.817885766134068672994494875183590920642018318176e-02,3.995232455557527068146228543810138944536447525024e-02,1.000000000000000020816681711721685132943093776703e-02
7.500000000000004440892098500626161694526672363281e-01,-1.814870138481171693567439717753586592152714729309e-02,3.995755206919323482273043168788717593997716903687e-02,1.000000000000000020816681711721685132943093776703e-02
7.600000000000004529709940470638684928417205810547e-01,-1.811839503416165855775865622945275390520691871643e-02,3.996293753194842673925890608188637997955083847046e-02,1.000000000000000020816681711721685132943093776703e-02
7.700000000000004618527782440651208162307739257812e-01,-1.808793850657515120405882669274433283135294914246e-02,3.996848101434606614912325994737329892814159393311e-02,1.000000000000000020816681711721685132943093776703e-02
7.800000000000004707345624410663731396198272705078e-01,-1.805733169833810894400194513309543253853917121887e-02,3.997418258774546040434927363094175234436988830566e-02,1.000000000000000020816681711721685132943093776703e-02
7.900000000000004796163466380676254630088806152344e-01,-1.802657450483684253850213963232818059623241424561e-02,3.998004232435961591285433769371593371033668518066e-02,1.000000000000000020816681711721685132943093776703e-02
8.000000000000004884981308350688777863979339599609e-01,-1.799566682055719554766959333846898516640067100525e-02,3.998606029725480098813150675596261862665414810181e-02,1.000000000000000020816681711721685132943093776703e-02
8.100000000000004973799150320701301097869873046875e-01,-1.796460853908370125520121973750065080821514129639e-02,3.999223658035010869893355334170337300747632980347e-02,1.000000000000000020816681711721685132943093776703e-02
8.200000000000005062616992290713824331760406494141e-01,-1.793339955309873612332438597150030545890331268311e-02,3.999857124841700584116921390887000598013401031494e-02,1.000000000000000020816681711721685132943093776703e-02
8.300000000000005151434834260726347565650939941406e-01,-1.790203975438170447276320373930502682924270629883e-02,4.000506437707883333754210752886137925088405609131e-02,1.000000000000000020816681711721685132943093776703e-02
8.400000000000005240252676230738870799541473388672e-01,-1.787052903380821275436396433633490232750773429871e-02,4.001171604281032051497746238055697176605463027954e-02,1.000000000000000020816681711721685132943093776703e-02
8.500000000000005329070518200751394033432006835938e-01,-1.783886728134927851519009323055797722190618515015e-02,4.001852632293705080979151489373180083930492401123e-02,1.000000000000000020816681711721685132943093776703e-02
8.600000000000005417888360170763917267322540283203e-01,-1.780705438607053242572320073122682515531778335571e-02,4.002549529563492747286090889247134327888488769531e-02,1.000000000000000020816681711721685132943093776703e-02
8.700000000000005506706202140776440501213073730469e-01,-1.777509023613145153208670024014281807467341423035e-02,4.003262303992961151921647910967294592410326004028e-02,1.000000000000000020816681711721685132943093776703e-02
8.800000000000005595524044110788963735103607177734e-01,-1.774297471878458556937552259569201851263642311096e-02,4.003990963569593886095532297986210323870182037354e-02,1.000000000000000020816681711721685132943093776703e-02
8.900000000000005684341886080801486968994140625000e-01,-1.771070772037480756111449409218039363622665405273e-02,4.004735516365730968457725680309522431343793869019e-02,1.000000000000000020816681711721685132943093776703e-02
