time,u0,u1,tau
0.000000000000000000000000000000000000000000000000e+00,-1.800000000000000210942374678779742680490016937256e-01,-1.000000000000000888178419700125232338905334472656e-02,1.000000000000000020816681711721685132943093776703e-02
1.000000000000000020816681711721685132943093776703e-02,-1.800170133250082182829743260299437679350376129150e-01,-9.838029455628864369809427614654850913211703300476e-03,1.000000000000000020816681711721685132943093776703e-02
2.000000000000000041633363423443370265886187553406e-02,-1.800337889967401905355615099324495531618595123291e-01,-9.676058740010106545836876534849579911679029464722e-03,1.000000000000000020816681711721685132943093776703e-02
2.999999999999999888977697537484345957636833190918e-02,-1.800503257499330989066521624408778734505176544189e-01,-9.514087082247733861972704971776693128049373626709e-03,1.000000000000000020816681711721685132943093776703e-02
4.000000000000000083266726846886740531772375106812e-02,-1.800666223182446346040563867063610814511775970459e-01,-9.352113716067181684032938449036009842529892921448e-03,1.000000000000000020816681711721685132943093776703e-02
5.000000000000000277555756156289135105907917022705e-02,-1.800826774342772773618293058461858890950679779053e-01,-9.190137879813795734884607213643903378397226333618e-03,1.000000000000000020816681711721685132943093776703e-02
6.000000000000000471844785465691529680043458938599e-02,-1.800984898296028313691152789033367298543453216553e-01,-9.028158816451244822465227457541914191097021102905e-03,1.000000000000000020816681711721685132943093776703e-02
7.000000000000000666133814775093924254179000854492e-02,-1.801140582347868501766896542903850786387920379639e-01,-8.866175773559890199715383118928002659231424331665e-03,1.000000000000000020816681711721685132943093776703e-02
8.000000000000000166533453693773481063544750213623e-02,-1.801293813794133114036810638936003670096397399902e-01,-8.704188003335099413360076425760780693963170051575e-03,1.000000000000000020816681711721685132943093776703e-02
8.999999999999999666933092612453037872910499572754e-02,-1.801444579921091249108400234035798348486423492432e-01,-8.542194762585504641538847181436722166836261749268e-03,1.000000000000000020816681711721685132943093776703e-02
9.999999999999999167332731531132594682276248931885e-02,-1.801592868005690017962905358217540197074413299561e-01,-8.380195312731205520284660792640352156013250350952e-03,1.000000000000000020816681711721685132943093776703e-02
1.099999999999999866773237044981215149164199829102e-01,-1.801738665315801291022523855644976720213890075684e-01,-8.218188919801918193575041016174509422853589057922e-03,1.000000000000000020816681711721685132943093776703e-02
1.199999999999999816813200936849170830100774765015e-01,-1.801881959110470943219439732274622656404972076416e-01,-8.056174854435061913338067540735210059210658073425e-03,1.000000000000000020816681711721685132943093776703e-02
1.299999999999999766853164828717126511037349700928e-01,-1.802022736640168654176363816077355295419692993164e-01,-7.894152391873800536647998171702056424692273139954e-03,1.000000000000000020816681711721685132943093776703e-02
1.399999999999999855671006798729649744927883148193e-01,-1.802160985147037153275562104681739583611488342285e-01,-7.732120811965006827726210048012944753281772136688e-03,1.000000000000000020816681711721685132943093776703e-02
1.499999999999999944488848768742172978818416595459e-01,-1.802296691865143685173933363330434076488018035889e-01,-7.570079399157182524493503450457865255884826183319e-03,1.000000000000000020816681711721685132943093776703e-02
1.600000000000000033306690738754696212708950042725e-01,-1.802429844020731475318086722836596891283988952637e-01,-7.408027442498310750906842514496020157821476459503e-03,1.000000000000000020816681711721685132943093776703e-02
1.700000000000000122124532708767219446599483489990e-01,-1.802560428832472028126687746407696977257728576660e-01,-7.245964235633647713974436754824637318961322307587e-03,1.000000000000000020816681711721685132943093776703e-02
1.800000000000000210942374678779742680490016937256e-01,-1.802688433511718535395829121625865809619426727295e-01,-7.083889076803450216002211448085290612652897834778e-03,1.000000000000000020816681711721685132943093776703e-02
1.900000000000000299760216648792265914380550384521e-01,-1.802813845262759284704401352428249083459377288818e-01,-6.921801268840643318880356815725463093258440494537e-03,1.000000000000000020816681711721685132943093776703e-02
2.000000000000000388578058618804789148271083831787e-01,-1.802936651283072178042488076243898831307888031006e-01,-6.759700119168420354154314111383428098633885383606e-03,1.000000000000000020816681711721685132943093776703e-02
2.100000000000000477395900588817312382161617279053e-01,-1.803056838763580083107029849998070858418941497803e-01,-6.597584939797777880965412578007089905440807342529e-03,1.000000000000000020816681711721685132943093776703e-02
2.200000000000000566213742558829835616052150726318e-01,-1.803174394888906739709000248694792389869689941406e-01,-6.435455047324987326584633251513878349214792251587e-03,1.000000000000000020816681711721685132943093776703e-02
2.300000000000000655031584528842358849942684173584e-01,-1.803289306837633498847850432866835035383701324463e-01,-6.273309762928993768560381738552678143605589866638e-03,1.000000000000000020816681711721685132943093776703e-02
2.400000000000000743849426498854882083833217620850e-01,-1.803401561782556894453222184893093071877956390381e-01,-6.111148412368751399459387840806812164373695850372e-03,1.000000000000000020816681711721685132943093776703e-02
2.500000000000000555111512312578270211815834045410e-01,-1.803511146890946215126660945315961726009845733643e-01,-5.948970325980487867945090130206153844483196735382e-03,1.000000000000000020816681711721685132943093776703e-02
2.600000000000000643929354282590793445706367492676e-01,-1.803618049324803018773621943182661198079586029053e-01,-5.786774838674897496193505475048368680290877819061e-03,1.000000000000000020816681711721685132943093776703e-02
2.700000000000000732747196252603316679596900939941e-01,-1.803722256241120369679720170097425580024719238281e-01,-5.624561289934265108370059493836379260756075382233e-03,1.000000000000000020816681711721685132943093776703e-02
2.800000000000000821565038222615839913487434387207e-01,-1.803823754792142630698492666851961985230445861816e-01,-5.462329023809517868082163971621412201784551143646e-03,1.000000000000000020816681711721685132943093776703e-02
2.900000000000000910382880192628363147377967834473e-01,-1.803922532125627198329453904079855419695377349854e-01,-5.300077388917202522722327273640985367819666862488e-03,1.000000000000000020816681711721685132943093776703e-02
3.000000000000000999200722162640886381268501281738e-01,-1.804018575385105405128882694043568335473537445068e-01,-5.137805738436389789425273733058929792605340480804e-03,1.000000000000000020816681711721685132943093776703e-02
3.100000000000001088018564132653409615159034729004e-01,-1.804111871710145642566658352734521031379699707031e-01,-4.975513430105503280553858047596804681234061717987e-03,1.000000000000000020816681711721685132943093776703e-02
3.200000000000001176836406102665932849049568176270e-01,-1.804202408236615928771584549394901841878890991211e-01,-4.813199826219075570798988650267347111366689205170e-03,1.000000000000000020816681711721685132943093776703e-02
3.300000000000001265654248072678456082940101623535e-01,-1.804290172096947308943981624906882643699645996094e-01,-4.650864293624421864914442181770937168039381504059e-03,1.000000000000000020816681711721685132943093776703e-02
3.400000000000001354472090042690979316830635070801e-01,-1.804375150420399198658572004205780103802680969238e-01,-4.488506203718243409150900902204739395529031753540e-03,1.000000000000000020816681711721685132943093776703e-02
3.500000000000001443289932012703502550721168518066e-01,-1.804457330333323339388584827247541397809982299805e-01,-4.326124932443145901239667239224218064919114112854e-03,1.000000000000000020816681711721685132943093776703e-02
3.600000000000001532107773982716025784611701965332e-01,-1.804536698959430807143178299156716093420982360840e-01,-4.163719860284082439905173345096045522950589656830e-03,1.000000000000000020816681711721685132943093776703e-02
3.700000000000001620925615952728549018502235412598e-01,-1.804613243420057633326081258928752504289150238037e-01,-4.001290372264713207650643767010478768497705459595e-03,1.000000000000000020816681711721685132943093776703e-02
3.800000000000001709743457922741072252392768859863e-01,-1.804686950834432090928771685867104679346084594727e-01,-3.838835857943687090987339161074487492442131042480e-03,1.000000000000000020816681711721685132943093776703e-02
3.900000000000001798561299892753595486283302307129e-01,-1.804757808319942535835167518598609603941440582275e-01,-3.676355711410839600256084125362576742190867662430e-03,1.000000000000000020816681711721685132943093776703e-02
4.000000000000001887379141862766118720173835754395e-01,-1.804825802992405803237829786667134612798690795898e-01,-3.513849331283306655360210157823530607856810092926e-03,1.000000000000000020816681711721685132943093776703e-02
4.100000000000001976196983832778641954064369201660e-01,-1.804890921966336991832946523572900332510471343994e-01,-3.351316120701556839495127704253718547988682985306e-03,1.000000000000000020816681711721685132943093776703e-02
4.200000000000002065014825802791165187954902648926e-01,-1.804953152355217860236535898366128094494342803955e-01,-3.188755487325336049342361377512133913114666938782e-03,1.000000000000000020816681711721685132943093776703e-02
4.300000000000002153832667772803688421845436096191e-01,-1.805012481271768831625479378999443724751472473145e-01,-3.026166843329528878536738289994900696910917758942e-03,1.000000000000000020816681711721685132943093776703e-02
4.400000000000002242650509742816211655735969543457e-01,-1.805068895828218777932505645367200486361980438232e-01,-2.863549605399931096555432574746191676240414381027e-03,1.000000000000000020816681711721685132943093776703e-02
4.500000000000002331468351712828734889626502990723e-01,-1.805122383136577302042979908947017975151538848877e-01,-2.700903194728937126156687043021520366892218589783e-03,1.000000000000000020816681711721685132943093776703e-02
4.600000000000002420286193682841258123517036437988e-01,-1.805172930308907297547449388730456121265888214111e-01,-2.538227037011136014155177065276802750304341316223e-03,1.000000000000000020816681711721685132943093776703e-02
4.700000000000002509104035652853781357407569885254e-01,-1.805220524457597230938432630864554084837436676025e-01,-2.375520562438821099704444606004472007043659687042e-03,1.000000000000000020816681711721685132943093776703e-02
4.800000000000002597921877622866304591298103332520e-01,-1.805265152695635366697501922317314893007278442383e-01,-2.212783205697406874873367499390042212326079607010e-03,1.000000000000000020816681711721685132943093776703e-02
4.900000000000002686739719592878827825188636779785e-01,-1.805306802136883714826609548254054971039295196533e-01,-2.050014405960756940644484913605083420407027006149e-03,1.000000000000000020816681711721685132943093776703e-02
5.000000000000002220446049250313080847263336181641e-01,-1.805345459896352533490926361992023885250091552734e-01,-1.887213606886418938365923558819758909521624445915e-03,1.000000000000000020816681711721685132943093776703e-02
5.100000000000002309263891220325604081153869628906e-01,-1.805381113090476496996217292689834721386432647705e-01,-1.724380256610766022976055644733150984393432736397e-03,1.000000000000000020816681711721685132943093776703e-02
5.200000000000002398081733190338127315044403076172e-01,-1.805413748837390031098948384169489145278930664062e-01,-1.561513807744045745362626576024922542273998260498e-03,1.000000000000000020816681711721685132943093776703e-02
5.300000000000002486899575160350650548934936523438e-01,-1.805443354257203758539418458894942887127399444580e-01,-1.398613717365334175452007414719446387607604265213e-03,1.000000000000000020816681711721685132943093776703e-02
5.400000000000002575717417130363173782825469970703e-01,-1.805469916472282887465183875974616967141628265381e-01,-1.235679447017394615507268618159741890849545598030e-03,1.000000000000000020816681711721685132943093776703e-02
5.500000000000002664535259100375697016716003417969e-01,-1.805493422607523379408434038850828073918819427490e-01,-1.072710462701438952071164578683237778022885322571e-03,1.000000000000000020816681711721685132943093776703e-02
5.600000000000002753353101070388220250606536865234e-01,-1.805513859790631447932440778458840213716030120850e-01,-9.097062348717938149583739360082290659192949533463e-04,1.000000000000000020816681711721685132943093776703e-02
5.700000000000002842170943040400743484497070312500e-01,-1.805531215152401947054983111229375936090946197510e-01,-7.466662384304675317489574659646223153686150908470e-04,1.000000000000000020816681711721685132943093776703e-02
5.800000000000002930988785010413266718387603759766e-01,-1.805545475826998147450552778536803089082241058350e-01,-5.835899527216183114639025397707428055582568049431e-04,1.000000000000000020816681711721685132943093776703e-02
5.900000000000003019806626980425789952278137207031e-01,-1.805556628952231235096803629858186468482017517090e-01,-4.204768615259232237418851596544300264213234186172e-04,1.000000000000000020816681711721685132943093776703e-02
6.000000000000003108624468950438313186168670654297e-01,-1.805564661669841197699781787378014996647834777832e-01,-2.573264530548467266847512124883223805227316915989e-04,1.000000000000000020816681711721685132943093776703e-02
6.100000000000003197442310920450836420059204101562e-01,-1.805569561125777711119155810592928901314735412598e-01,-9.413821994480763206449014379728623680421151220798e-05,1.000000000000000020816681711721685132943093776703e-02
6.200000000000003286260152890463359653949737548828e-01,-1.805571314470482136016471486072987318038940429688e-01,6.908834074875562763357050855006491474341601133347e-05,1.000000000000000020816681711721685132943093776703e-02
6.300000000000003375077994860475882887840270996094e-01,-1.805569908859169514503406617222935892641544342041e-01,2.323537275574230295295541370848013684735633432865e-04,1.000000000000000020816681711721685132943093776703e-02
6.400000000000003463895836830488406121730804443359e-01,-1.805565331452110566790025814043474383652210235596e-01,3.956584346059344777651878288793341198470443487167e-04,1.000000000000000020816681711721685132943093776703e-02
6.500000000000003552713678800500929355621337890625e-01,-1.805557569414915630723328376916470006108283996582e-01,5.590029516184355940638939230780124489683657884598e-04,1.000000000000000020816681711721685132943093776703e-02
6.600000000000003641531520770513452589511871337891e-01,-1.805546609918817768658527711522765457630157470703e-01,7.223877639248291095824816565595938300248235464096e-04,1.000000000000000020816681711721685132943093776703e-02
6.700000000000003730349362740525975823402404785156e-01,-1.805532440140957262109111525205662474036216735840e-01,8.858133524672321019999277069700838183052837848663e-04,1.000000000000000020816681711721685132943093776703e-02
6.800000000000003819167204710538499057292938232422e-01,-1.805515047264666106396902023334405384957790374756e-01,1.049280193806540351780798303593655873555690050125e-03,1.000000000000000020816681711721685132943093776703e-02
6.900000000000003907985046680551022291183471679688e-01,-1.805494418479752782857872261956799775362014770508e-01,1.212788760129100088663856027437759621534496545792e-03,1.000000000000000020816681711721685132943093776703e-02
7.000000000000003996802888650563545525074005126953e-01,-1.805470540982788141270987125608371570706367492676e-01,1.376339519253487724687046167559856257867068052292e-03,1.000000000000000020816681711721685132943093776703e-02
7.100000000000004085620730620576068758964538574219e-01,-1.805443401977391004731288148832391016185283660889e-01,1.539932934637399958993642101745535910595208406448e-03,1.000000000000000020816681711721685132943093776703e-02
7.200000000000004174438572590588591992855072021484e-01,-1.805412988674514884746002962856437079608440399170e-01,1.703569465384652302855639227630035748006775975227e-03,1.000000000000000020816681711721685132943093776703e-02
7.300000000000004263256414560601115226745605468750e-01,-1.805379288292734418774898585979826748371124267578e-01,1.867249566252289060680480403675574052613228559494e-03,1.000000000000000020816681711721685132943093776703e-02
7.400000000000004352074256530613638460636138916016e-01,-1.805342288058533195549415495406719855964183807373e-01,2.030973687657804550160678402903613459784537553787e-03,1.000000000000000020816681711721685132943093776703e-02
7.500000000000004440892098500626161694526672363281e-01,-1.805301975206591302836045542790088802576065063477e-01,2.194742275686476645768507864886487368494272232056e-03,1.000000000000000020816681711721685132943093776703e-02
7.600000000000004529709940470638684928417205810547e-01,-1.805258336980072875199709869775688275694847106934e-01,2.358555772098812428755332248897502722684293985367e-03,1.000000000000000020816681711721685132943093776703e-02
7.700000000000004618527782440651208162307739257812e-01,-1.805211360630915029545917604991700500249862670898e-01,2.522414614338108328900345256329273979645222425461e-03,1.000000000000000020816681711721685132943093776703e-02
7.800000000000004707345624410663731396198272705078e-01,-1.805161033420116523107168404749245382845401763916e-01,2.686319235538123240125685242674080654978752136230e-03,1.000000000000000020816681711721685132943093776703e-02
7.900000000000004796163466380676254630088806152344e-01,-1.805107342618026966540867306321160867810249328613e-01,2.850270064530868729946178063983097672462463378906e-03,1.000000000000000020816681711721685132943093776703e-02
8.000000000000004884981308350688777863979339599609e-01,-1.805050275504636869694508050088188610970973968506e-01,3.014267525854512873306756404190309694968163967133e-03,1.000000000000000020816681711721685132943093776703e-02
8.100000000000004973799150320701301097869873046875e-01,-1.804989819369867132259344089106889441609382629395e-01,3.178312039761400312892769548511751054320484399796e-03,1.000000000000000020816681711721685132943093776703e-02
8.200000000000005062616992290713824331760406494141e-01,-1.804925961513858811979815754966693930327892303467e-01,3.342404022226191581679266562332486500963568687439e-03,1.000000000000000020816681711721685132943093776703e-02
8.300000000000005151434834260726347565650939941406e-01,-1.804858689247265113309026673960033804178237915039e-01,3.506543884954117350910562933563596743624657392502e-03,1.000000000000000020816681711721685132943093776703e-02
8.400000000000005240252676230738870799541473388672e-01,-1.804787989891540878062414776650257408618927001953e-01,3.670732035389353675042256597293999220710247755051e-03,1.000000000000000020816681711721685132943093776703e-02
8.500000000000005329070518200751394033432006835938e-01,-1.804713850779234851628984870330896228551864624023e-01,3.834968876723513463156134406517594470642507076263e-03,1.000000000000000020816681711721685132943093776703e-02
8.600000000000005417888360170763917267322540283203e-01,-1.804636259254280561403760430039255879819393157959e-01,3.999254807904259814699265973558794939890503883362e-03,1.000000000000000020816681711721685132943093776703e-02
8.700000000000005506706202140776440501213073730469e-01,-1.804555202672288860554772327304817736148834228516e-01,4.163590223644039051142939911187568213790655136108e-03,1.000000000000000020816681711721685132943093776703e-02
8.800000000000005595524044110788963735103607177734e-01,-1.804470668400838806455510621162829920649528503418e-01,4.327975514428933877242311467625768273137509822845e-03,1.000000000000000020816681711721685132943093776703e-02
8.900000000000005684341886080801486968994140625000e-01,-1.804382643819771592230694068348384462296962738037e-01,4.492411066527637539258499543848301982507109642029e-03,1.000000000000000020816681711721685132943093776703e-02
