time,u0,u1,tau
0.000000000000000000000000000000000000000000000000e+00,-2.000000000000001776356839400250464677810668945312e-02,5.999999999999999777955395074968691915273666381836e-02,1.000000000000000020816681711721685132943093776703e-02
1.000000000000000020816681711721685132943093776703e-02,-1.996628915387330116537611957028275355696678161621e-02,5.999531199847462498153660703792411368340253829956e-02,1.000000000000000020816681711721685132943093776703e-02
2.000000000000000041633363423443370265886187553406e-02,-1.993236055098451808831327980442438274621963500977e-02,5.999085553848036711510616214582114480435848236084e-02,1.000000000000000020816681711721685132943093776703e-02
2.999999999999999888977697537484345957636833190918e-02,-1.989821404465446155751529033750557573512196540833e-02,5.998663066026816564901835704404220450669527053833e-02,1.000000000000000020816681711721685132943093776703e-02
4.000000000000000083266726846886740531772375106812e-02,-1.986384948695610330737792992294998839497566223145e-02,5.998263740531589033322390491775877308100461959839e-02,1.000000000000000020816681711721685132943093776703e-02
5.000000000000000277555756156289135105907917022705e-02,-1.982926672870999329489904994261451065540313720703e-02,5.997887581632892206595641937383334152400493621826e-02,1.000000000000000020816681711721685132943093776703e-02
6.000000000000000471844785465691529680043458938599e-02,-1.979446561947968002970199563606001902371644973755e-02,5.997534593724068024966911139017611276358366012573e-02,1.000000000000000020816681711721685132943093776703e-02
7.000000000000000666133814775093924254179000854492e-02,-1.975944600756715519018769100512145087122917175293e-02,5.997204781321316402475929407955845817923545837402e-02,1.000000000000000020816681711721685132943093776703e-02
8.000000000000000166533453693773481063544750213623e-02,-1.972420774000829130079281981124950107187032699585e-02,5.996898149063743105324775228837097529321908950806e-02,1.000000000000000020816681711721685132943093776703e-02
8.999999999999999666933092612453037872910499572754e-02,-1.968875066256832451205838196983677335083484649658e-02,5.996614701713405548577640047369641251862049102783e-02,1.000000000000000020816681711721685132943093776703e-02
9.999999999999999167332731531132594682276248931885e-02,-1.965307461973733044180434603731555398553609848022e-02,5.996354444155357205081813276592583861202001571655e-02,1.000000000000000020816681711721685132943093776703e-02
1.099999999999999866773237044981215149164199829102e-01,-1.961717945472572777187991732716909609735012054443e-02,5.996117381397685075494763395909103564918041229248e-02,1.000000000000000020816681711721685132943093776703e-02
1.199999999999999816813200936849170830100774765015e-01,-1.958106500945979572270161384039965923875570297241e-02,5.995903518571547852200609440842526964843273162842e-02,1.000000000000000020816681711721685132943093776703e-02
1.299999999999999766853164828717126511037349700928e-01,-1.954473112457720887502610196406749309971928596497e-02,5.995712860931209919890250148455379530787467956543e-02,1.000000000000000020816681711721685132943093776703e-02
1.399999999999999855671006798729649744927883148193e-01,-1.950817763942258240006388803067238768562674522400e-02,5.995545413854070498915760367708571720868349075317e-02,1.000000000000000020816681711721685132943093776703e-02
1.499999999999999944488848768742172978818416595459e-01,-1.947140439204304157572167355283454526215791702271e-02,5.995401182840692094755397079097747337073087692261e-02,1.000000000000000020816681711721685132943093776703e-02
1.600000000000000033306690738754696212708950042725e-01,-1.943441121918379130284471045797545230016112327576e-02,5.995280173514826171921043851398280821740627288818e-02,1.000000000000000020816681711721685132943093776703e-02
1.700000000000000122124532708767219446599483489990e-01,-1.939719795628372378537562781275482848286628723145e-02,5.995182391623431195082361000459059141576290130615e-02,1.000000000000000020816681711721685132943093776703e-02
1.800000000000000210942374678779742680490016937256e-01,-1.935976443747102274106630659389338688924908638000e-02,5.995107843036694833527278092333290260285139083862e-02,1.000000000000000020816681711721685132943093776703e-02
1.900000000000000299760216648792265914380550384521e-01,-1.932211049555878495942451422706653829663991928101e-02,5.995056533748045063392240194843907374888658523560e-02,1.000000000000000020816681711721685132943093776703e-02
2.000000000000000388578058618804789148271083831787e-01,-1.928423596204066961523615475471160607412457466125e-02,5.995028469874164739339406082763161975890398025513e-02,1.000000000000000020816681711721685132943093776703e-02
2.100000000000000477395900588817312382161617279053e-01,-1.924614066708654758208751900383504107594490051270e-02,5.995023657654999227339942535763839259743690490723e-02,1.000000000000000020816681711721685132943093776703e-02
2.200000000000000566213742558829835616052150726318e-01,-1.920782443953817156256924647550476947799324989319e-02,5.995042103453761261899757073479122482240200042725e-02,1.000000000000000020816681711721685132943093776703e-02
2.300000000000000655031584528842358849942684173584e-01,-1.916928710690486356571504700241348473355174064636e-02,5.995083813756935109395840299839619547128677368164e-02,1.000000000000000020816681711721685132943093776703e-02
2.400000000000000743849426498854882083833217620850e-01,-1.913052849535921279278127826728450600057840347290e-02,5.995148795174272404739923558736336417496204376221e-02,1.000000000000000020816681711721685132943093776703e-02
2.500000000000000555111512312578270211815834045410e-01,-1.909154842973278740081433113573439186438918113708e-02,5.995237054438791457489088543297839350998401641846e-02,1.000000000000000020816681711721685132943093776703e-02
2.600000000000000643929354282590793445706367492676e-01,-1.905234673351187055234667866443487582728266716003e-02,5.995348598406766843504911435047688428312540054321e-02,1.000000000000000020816681711721685132943093776703e-02
2.700000000000000732747196252603316679596900939941e-01,-1.901292322883318952619902120204642415046691894531e-02,5.995483434057720384391387824507546611130237579346e-02,1.000000000000000020816681711721685132943093776703e-02
2.800000000000000821565038222615839913487434387207e-01,-1.897327773647968299219890297990787075832486152649e-02,5.995641568494406575817734506017586681991815567017e-02,1.000000000000000020816681711721685132943093776703e-02
2.900000000000000910382880192628363147377967834473e-01,-1.893341007587626828589932870272605214267969131470e-02,5.995823008942794546394239318942709360271692276001e-02,1.000000000000000020816681711721685132943093776703e-02
3.000000000000000999200722162640886381268501281738e-01,-1.889332006508561909163823600010800873860716819763e-02,5.996027762752047934879939816710248123854398727417e-02,1.000000000000000020816681711721685132943093776703e-02
3.100000000000001088018564132653409615159034729004e-01,-1.885300752080397435062053546062088571488857269287e-02,5.996255837394500604053959591510647442191839218140e-02,1.000000000000000020816681711721685132943093776703e-02
3.200000000000001176836406102665932849049568176270e-01,-1.881247225835694023010624675862345611676573753357e-02,5.996507240465629579029283036106789950281381607056e-02,1.000000000000000020816681711721685132943093776703e-02
3.300000000000001265654248072678456082940101623535e-01,-1.877171409169531637872729845639696577563881874084e-02,5.996781979684023128340797370583459269255399703979e-02,1.000000000000000020816681711721685132943093776703e-02
3.400000000000001354472090042690979316830635070801e-01,-1.873073283339094299848603952796111116185784339905e-02,5.997080062891348151143944278373965062201023101807e-02,1.000000000000000020816681711721685132943093776703e-02
3.500000000000001443289932012703502550721168518066e-01,-1.868952829463253750841289502204745076596736907959e-02,5.997401498052310625519467635058390442281961441040e-02,1.000000000000000020816681711721685132943093776703e-02
3.600000000000001532107773982716025784611701965332e-01,-1.864810028522157631103439712205727118998765945435e-02,5.997746293254616056778161237161839380860328674316e-02,1.000000000000000020816681711721685132943093776703e-02
3.700000000000001620925615952728549018502235412598e-01,-1.860644861356815574215950448433432029560208320618e-02,5.998114456708924374650493405169981997460126876831e-02,1.000000000000000020816681711721685132943093776703e-02
3.800000000000001709743457922741072252392768859863e-01,-1.856457308668689118458239306619361741468310356140e-02,5.998505996748802054918670023653248790651559829712e-02,1.000000000000000020816681711721685132943093776703e-02
3.900000000000001798561299892753595486283302307129e-01,-1.852247351019282659012610281479283003136515617371e-02,5.998920921830669383822964846331160515546798706055e-02,1.000000000000000020816681711721685132943093776703e-02
4.000000000000001887379141862766118720173835754395e-01,-1.848014968829733706279228044877527281641960144043e-02,5.999359240533747722468049801136658061295747756958e-02,1.000000000000000020816681711721685132943093776703e-02
4.100000000000001976196983832778641954064369201660e-01,-1.843760142380406960582739372966898372396826744080e-02,5.999820961559998444556640606606379151344299316406e-02,1.000000000000000020816681711721685132943093776703e-02
4.200000000000002065014825802791165187954902648926e-01,-1.839482851810487692989504182605742244049906730652e-02,6.000306093734062568012532778993772808462381362915e-02,1.000000000000000020816681711721685132943093776703e-02
4.300000000000002153832667772803688421845436096191e-01,-1.835183077117577901682388130666367942467331886292e-02,6.000814646003194141599124122876673936843872070312e-02,1.000000000000000020816681711721685132943093776703e-02
4.400000000000002242650509742816211655735969543457e-01,-1.830860798157292121390860017982049612328410148621e-02,6.001346627437190855980375658873526845127344131470e-02,1.000000000000000020816681711721685132943093776703e-02
4.500000000000002331468351712828734889626502990723e-01,-1.826515994642856008378650756185379577800631523132e-02,6.001902047228322573113601379191095475107431411743e-02,1.000000000000000020816681711721685132943093776703e-02
4.600000000000002420286193682841258123517036437988e-01,-1.822148646144704578486717139185202540829777717590e-02,6.002480914691252916748354095943795982748270034790e-02,1.000000000000000020816681711721685132943093776703e-02
4.700000000000002509104035652853781357407569885254e-01,-1.817758732090083567678462372896319720894098281860e-02,6.003083239262960169035920898750191554427146911621e-02,1.000000000000000020816681711721685132943093776703e-02
4.800000000000002597921877622866304591298103332520e-01,-1.813346231762649751750871018884936347603797912598e-02,6.003709030502652616023695486546785105019807815552e-02,1.000000000000000020816681711721685132943093776703e-02
4.900000000000002686739719592878827825188636779785e-01,-1.808911124302074388547900696266879094764590263367e-02,6.004358298091681811481379327233298681676387786865e-02,1.000000000000000020816681711721685132943093776703e-02
5.000000000000002220446049250313080847263336181641e-01,-1.804453388703647007118568978967232396826148033142e-02,6.005031051833450983501450082258088514208793640137e-02,1.000000000000000020816681711721685132943093776703e-02
5.100000000000002309263891220325604081153869628906e-01,-1.799973003817879890764430683702812530100345611572e-02,6.005727301653319277763287686866533476859331130981e-02,1.000000000000000020816681711721685132943093776703e-02
5.200000000000002398081733190338127315044403076172e-01,-1.795469948350114641755226330133154988288879394531e-02,6.006447057598504613018519648903748020529747009277e-02,1.000000000000000020816681711721685132943093776703e-02
5.300000000000002486899575160350650548934936523438e-01,-1.790944200860129439933920991734339622780680656433e-02,6.007190329837978903793072049666079692542552947998e-02,1.000000000000000020816681711721685132943093776703e-02
5.400000000000002575717417130363173782825469970703e-01,-1.786395739761747342155828732757072430104017257690e-02,6.007957128662363976978610935475444421172142028809e-02,1.000000000000000020816681711721685132943093776703e-02
5.500000000000002664535259100375697016716003417969e-01,-1.781824543322445969506517826630442868918180465698e-02,6.008747464483819161751299020579608622938394546509e-02,1.000000000000000020816681711721685132943093776703e-02
5.600000000000002753353101070388220250606536865234e-01,-1.777230589662967888409106365088518941774964332581e-02,6.009561347835928879490552390052471309900283813477e-02,1.000000000000000020816681711721685132943093776703e-02
5.700000000000002842170943040400743484497070312500e-01,-1.772613856756933073399729039465455571189522743225e-02,6.010398789373584682582674076911644078791141510010e-02,1.000000000000000020816681711721685132943093776703e-02
5.800000000000002930988785010413266718387603759766e-01,-1.767974322430450676013613531267765210941433906555e-02,6.011259799872861048219974122730491217225790023804e-02,1.000000000000000020816681711721685132943093776703e-02
5.900000000000003019806626980425789952278137207031e-01,-1.763311964361733916173413660999358398839831352234e-02,6.012144390230893253868060810418683104217052459717e-02,1.000000000000000020816681711721685132943093776703e-02
6.000000000000003108624468950438313186168670654297e-01,-1.758626760080715320522237732348003191873431205750e-02,6.013052571465744844392276036160183139145374298096e-02,1.000000000000000020816681711721685132943093776703e-02
6.100000000000003197442310920450836420059204101562e-01,-1.753918686968661613811981681010365718975663185120e-02,6.013984354716275099184130681351234670728445053101e-02,1.000000000000000020816681711721685132943093776703e-02
6.200000000000003286260152890463359653949737548828e-01,-1.749187722257792079738614177131239557638764381409e-02,6.014939751242001642062007249478483572602272033691e-02,1.000000000000000020816681711721685132943093776703e-02
6.300000000000003375077994860475882887840270996094e-01,-1.744433843030896574832766532381356228142976760864e-02,6.015918772422957500056739377214398700743913650513e-02,1.000000000000000020816681711721685132943093776703e-02
6.400000000000003463895836830488406121730804443359e-01,-1.739657026220954583184408193119452334940433502197e-02,6.016921429759546080529020173344179056584835052490e-02,1.000000000000000020816681711721685132943093776703e-02
6.500000000000003552713678800500929355621337890625e-01,-1.734857248610755312001607819638593355193734169006e-02,6.017947734872392678839858604078472126275300979614e-02,1.000000000000000020816681711721685132943093776703e-02
6.600000000000003641531520770513452589511871337891e-01,-1.730034486832519521892770342219591839239001274109e-02,6.018997699502188353237741580414876807481050491333e-02,1.000000000000000020816681711721685132943093776703e-02
6.700000000000003730349362740525975823402404785156e-01,-1.725188717367521704093569212545844493433833122253e-02,6.020071335509532411967015264053770806640386581421e-02,1.000000000000000020816681711721685132943093776703e-02
6.800000000000003819167204710538499057292938232422e-01,-1.720319916545713645472659436563844792544841766357e-02,6.021168654874772818708095201145624741911888122559e-02,1.000000000000000020816681711721685132943093776703e-02
6.900000000000003907985046680551022291183471679688e-01,-1.715428060545348340482085802705114474520087242126e-02,6.022289669697835495787430204472912009805440902710e-02,1.000000000000000020816681711721685132943093776703e-02
7.000000000000003996802888650563545525074005126953e-01,-1.710513125392606331720557477638067211955785751343e-02,6.023434392198057790723808579969045240432024002075e-02,1.000000000000000020816681711721685132943093776703e-02
7.100000000000004085620730620576068758964538574219e-01,-1.705575086961220662717941820574196754023432731628e-02,6.024602834714010840544418101671908516436815261841e-02,1.000000000000000020816681711721685132943093776703e-02
7.200000000000004174438572590588591992855072021484e-01,-1.700613920972105647111405346549872774630784988403e-02,6.025795009703322629990296377400227356702089309692e-02,1.000000000000000020816681711721685132943093776703e-02
7.300000000000004263256414560601115226745605468750e-01,-1.695629602992984250042773908262461191043257713318e-02,6.027010929742494110827877307201561052352190017700e-02,1.000000000000000020816681711721685132943093776703e-02
7.400000000000004352074256530613638460636138916016e-01,-1.690622108438017898168759245436376659199595451355e-02,6.028250607526710463934804806740430649369955062866e-02,1.000000000000000020816681711721685132943093776703e-02
7.500000000000004440892098500626161694526672363281e-01,-1.685591412567436289671185534189135069027543067932e-02,6.029514055869650973606965749240771401673555374146e-02,1.000000000000000020816681711721685132943093776703e-02
7.600000000000004529709940470638684928417205810547e-01,-1.680537490487169285935387108565919334068894386292e-02,6.030801287703291962971619000200007576495409011841e-02,1.000000000000000020816681711721685132943093776703e-02
7.700000000000004618527782440651208162307739257812e-01,-1.675460317148478109339215791351307416334748268127e-02,6.032112316077704872174791717043262906372547149658e-02,1.000000000000000020816681711721685132943093776703e-02
7.800000000000004707345624410663731396198272705078e-01,-1.670359867347588969654914592410932527855038642883e-02,6.033447154160854336568675648777571041136980056763e-02,1.000000000000000020816681711721685132943093776703e-02
7.900000000000004796163466380676254630088806152344e-01,-1.665236115725327384340381797755981096997857093811e-02,6.034805815238385162668777184080681763589382171631e-02,1.000000000000000020816681711721685132943093776703e-02
8.000000000000004884981308350688777863979339599609e-01,-1.660089036766752151885739863246271852403879165649e-02,6.036188312713410691889848180835542734712362289429e-02,1.000000000000000020816681711721685132943093776703e-02
8.100000000000004973799150320701301097869873046875e-01,-1.654918604800792100717465871184685965999960899353e-02,6.037594660106293531498522497713565826416015625000e-02,1.000000000000000020816681711721685132943093776703e-02
8.200000000000005062616992290713824331760406494141e-01,-1.649724793999882144213131596188759431242942810059e-02,6.039024871054422816119000572143704630434513092041e-02,1.000000000000000020816681711721685132943093776703e-02
8.300000000000005151434834260726347565650939941406e-01,-1.644507578379601070439619547869369853287935256958e-02,6.040478959311985918123610872498829849064350128174e-02,1.000000000000000020816681711721685132943093776703e-02
8.400000000000005240252676230738870799541473388672e-01,-1.639266931798310372725424599593679886311292648315e-02,6.041956938749736688576419396667915862053632736206e-02,1.000000000000000020816681711721685132943093776703e-02
8.500000000000005329070518200751394033432006835938e-01,-1.634002827956793080232955617248080670833587646484e-02,6.043458823354759534840496826291200704872608184814e-02,1.000000000000000020816681711721685132943093776703e-02
8.600000000000005417888360170763917267322540283203e-01,-1.628715240397894670199008260169648565351963043213e-02,6.044984627230226559291281773766968399286270141602e-02,1.000000000000000020816681711721685132943093776703e-02
8.700000000000005506706202140776440501213073730469e-01,-1.623404142506163633230542586716182995587587356567e-02,6.046534364595151228582992075644142460078001022339e-02,1.000000000000000020816681711721685132943093776703e-02
8.800000000000005595524044110788963735103607177734e-01,-1.618069507507493773323936636643338715657591819763e-02,6.048108049784139961246864913846366107463836669922e-02,1.000000000000000020816681711721685132943093776703e-02
8.900000000000005684341886080801486968994140625000e-01,-1.612711308468766854828935208843176951631903648376e-02,6.049705697247134694727321857499191537499427795410e-02,1.000000000000000020816681711721685132943093776703e-02
