time,u0,u1,tau
0.000000000000000000000000000000000000000000000000e+00,-1.900000000000000022204460492503130808472633361816e-01,9.999999999999995003996389186795568093657493591309e-03,1.000000000000000020816681711721685132943093776703e-02
1.000000000000000020816681711721685132943093776703e-02,-1.899814909051915634563556523062288761138916015625e-01,1.019915313176310636689159139223193051293492317200e-02,1.000000000000000020816681711721685132943093776703e-02
2.000000000000000041633363423443370265886187553406e-02,-1.899625764452672060933480224775848910212516784668e-01,1.039830326070219530809612962229948607273399829865e-02,1.000000000000000020816681711721685132943093776703e-02
2.999999999999999888977697537484345957636833190918e-02,-1.899432552126876228015817105188034474849700927734e-01,1.059745089696507991394724967904039658606052398682e-02,1.000000000000000020816681711721685132943093776703e-02
4.000000000000000083266726846886740531772375106812e-02,-1.899235258012465510368826926423935219645500183105e-01,1.079659654558984618888395345948083559051156044006e-02,1.000000000000000020816681711721685132943093776703e-02
5.000000000000000277555756156289135105907917022705e-02,-1.899033868061058838438981410945416428148746490479e-01,1.099574070652287009763892200453483383171260356903e-02,1.000000000000000020816681711721685132943093776703e-02
6.000000000000000471844785465691529680043458938599e-02,-1.898828368238305863702208853283082135021686553955e-01,1.119488387463702001867194013584594358690083026886e-02,1.000000000000000020816681711721685132943093776703e-02
7.000000000000000666133814775093924254179000854492e-02,-1.898618744524236401360894888057373464107513427734e-01,1.139402653975001532271615900526740006171166896820e-02,1.000000000000000020816681711721685132943093776703e-02
8.000000000000000166533453693773481063544750213623e-02,-1.898404982913609595485127101710531860589981079102e-01,1.159316918664295495422500437143753515556454658508e-02,1.000000000000000020816681711721685132943093776703e-02
8.999999999999999666933092612453037872910499572754e-02,-1.898187069416263361709695800527697429060935974121e-01,1.179231229507900734210235071941497153602540493011e-02,1.000000000000000020816681711721685132943093776703e-02
9.999999999999999167332731531132594682276248931885e-02,-1.897964990057461609485045528344926424324512481689e-01,1.199145633982227725222724501463744672946631908417e-02,1.000000000000000020816681711721685132943093776703e-02
1.099999999999999866773237044981215149164199829102e-01,-1.897738730878243407218519678281154483556747436523e-01,1.219060179065683223453842032313332310877740383148e-02,1.000000000000000020816681711721685132943093776703e-02
1.199999999999999816813200936849170830100774765015e-01,-1.897508277935769926969555854157079011201858520508e-01,1.238974911240590254246640711244253907352685928345e-02,1.000000000000000020816681711721685132943093776703e-02
1.299999999999999766853164828717126511037349700928e-01,-1.897273617303671666700637388203176669776439666748e-01,1.258889876495124411637238637240443495102226734161e-02,1.000000000000000020816681711721685132943093776703e-02
1.399999999999999855671006798729649744927883148193e-01,-1.897034735072395672528244858767720870673656463623e-01,1.278805120325267677405811639346211450174450874329e-02,1.000000000000000020816681711721685132943093776703e-02
1.499999999999999944488848768742172978818416595459e-01,-1.896791617349551095639270670289988629519939422607e-01,1.298720687736778720000607734164077555760741233826e-02,1.000000000000000020816681711721685132943093776703e-02
1.600000000000000033306690738754696212708950042725e-01,-1.896544250260255581874702102140872739255428314209e-01,1.318636623247180193752026156062129302881658077240e-02,1.000000000000000020816681711721685132943093776703e-02
1.700000000000000122124532708767219446599483489990e-01,-1.896292619947480551090279732306953519582748413086e-01,1.338552970887763558793803753133033751510083675385e-02,1.000000000000000020816681711721685132943093776703e-02
1.800000000000000210942374678779742680490016937256e-01,-1.896036712572396198961399704785435460507869720459e-01,1.358469774205610554329570760501155746169388294220e-02,1.000000000000000020816681711721685132943093776703e-02
1.900000000000000299760216648792265914380550384521e-01,-1.895776514314715111009235215533408336341381072998e-01,1.378387076265631845661818744019910809583961963654e-02,1.000000000000000020816681711721685132943093776703e-02
2.000000000000000388578058618804789148271083831787e-01,-1.895512011373036709294126467284513637423515319824e-01,1.398304919652622324566237921317224390804767608643e-02,1.000000000000000020816681711721685132943093776703e-02
2.100000000000000477395900588817312382161617279053e-01,-1.895243189965190588885945999209070578217506408691e-01,1.418223346473334797734899836996191879734396934509e-02,1.000000000000000020816681711721685132943093776703e-02
2.200000000000000566213742558829835616052150726318e-01,-1.894970036328578744111439391417661681771278381348e-01,1.438142398358569808147766622141716652549803256989e-02,1.000000000000000020816681711721685132943093776703e-02
2.300000000000000655031584528842358849942684173584e-01,-1.894692536720518072357322125753853470087051391602e-01,1.458062116465282803678960021898092236369848251343e-02,1.000000000000000020816681711721685132943093776703e-02
2.400000000000000743849426498854882083833217620850e-01,-1.894410677418582045206107977719511836767196655273e-01,1.477982541478708999882485386478947475552558898926e-02,1.000000000000000020816681711721685132943093776703e-02
2.500000000000000555111512312578270211815834045410e-01,-1.894124444720940714237400470665306784212589263916e-01,1.497903713614505069595672637206007493659853935242e-02,1.000000000000000020816681711721685132943093776703e-02
2.600000000000000643929354282590793445706367492676e-01,-1.893833824946702382163721267716027796268463134766e-01,1.517825672620908700194419793660927098244428634644e-02,1.000000000000000020816681711721685132943093776703e-02
2.700000000000000732747196252603316679596900939941e-01,-1.893538804436251943297264688226277939975261688232e-01,1.537748457780914630721458280504521098919212818146e-02,1.000000000000000020816681711721685132943093776703e-02
2.800000000000000821565038222615839913487434387207e-01,-1.893239369551590611795433005681843496859073638916e-01,1.557672107914468903611115990770485950633883476257e-02,1.000000000000000020816681711721685132943093776703e-02
2.900000000000000910382880192628363147377967834473e-01,-1.892935506676674262127590964155388064682483673096e-01,1.577596661380679596287102128826518310233950614929e-02,1.000000000000000020816681711721685132943093776703e-02
3.000000000000000999200722162640886381268501281738e-01,-1.892627202217750381763039513316471129655838012695e-01,1.597522156080046287773832602852053241804242134094e-02,1.000000000000000020816681711721685132943093776703e-02
3.100000000000001088018564132653409615159034729004e-01,-1.892314442603695856526258012308971956372261047363e-01,1.617448629456705311291386806260561570525169372559e-02,1.000000000000000020816681711721685132943093776703e-02
3.200000000000001176836406102665932849049568176270e-01,-1.891997214286352257950341027026297524571418762207e-01,1.637376118500693047974614557915629120543599128723e-02,1.000000000000000020816681711721685132943093776703e-02
3.300000000000001265654248072678456082940101623535e-01,-1.891675503740861685741947439964860677719116210938e-01,1.657304659750227435188740798821527278050780296326e-02,1.000000000000000020816681711721685132943093776703e-02
3.400000000000001354472090042690979316830635070801e-01,-1.891349297466001777578981091210152953863143920898e-01,1.677234289294005781245644470800471026450395584106e-02,1.000000000000000020816681711721685132943093776703e-02
3.500000000000001443289932012703502550721168518066e-01,-1.891018581984518776017978325398871675133705139160e-01,1.697165042773520621244287553963658865541219711304e-02,1.000000000000000020816681711721685132943093776703e-02
3.600000000000001532107773982716025784611701965332e-01,-1.890683343843461150513007851259317249059677124023e-01,1.717096955385392573201208676891837967559695243835e-02,1.000000000000000020816681711721685132943093776703e-02
3.700000000000001620925615952728549018502235412598e-01,-1.890343569614511276544277507127844728529453277588e-01,1.737030061883721929194557276332488982006907463074e-02,1.000000000000000020816681711721685132943093776703e-02
3.800000000000001709743457922741072252392768859863e-01,-1.889999245894317669858253339043585583567619323730e-01,1.756964396582455165130021157438022783026099205017e-02,1.000000000000000020816681711721685132943093776703e-02
3.900000000000001798561299892753595486283302307129e-01,-1.889650359304824722705973272240953519940376281738e-01,1.776899993357771920243770580327691277489066123962e-02,1.000000000000000020816681711721685132943093776703e-02
4.000000000000001887379141862766118720173835754395e-01,-1.889296896493602717637116938931285403668880462646e-01,1.796836885650486895227295747190510155633091926575e-02,1.000000000000000020816681711721685132943093776703e-02
4.100000000000001976196983832778641954064369201660e-01,-1.888938844134176731071050880927941761910915374756e-01,1.816775106468471179255175229627639055252075195312e-02,1.000000000000000020816681711721685132943093776703e-02
4.200000000000002065014825802791165187954902648926e-01,-1.888576188926354149089092970825731754302978515625e-01,1.836714688389089883413518577981449197977781295776e-02,1.000000000000000020816681711721685132943093776703e-02
4.300000000000002153832667772803688421845436096191e-01,-1.888208917596551628115264520602067932486534118652e-01,1.856655663561656774418473503374116262421011924744e-02,1.000000000000000020816681711721685132943093776703e-02
4.400000000000002242650509742816211655735969543457e-01,-1.887837016898121222929773921350715681910514831543e-01,1.876598063709908337237663999985670670866966247559e-02,1.000000000000000020816681711721685132943093776703e-02
4.500000000000002331468351712828734889626502990723e-01,-1.887460473611675404459475657859002240002155303955e-01,1.896541920134493103278217063234478700906038284302e-02,1.000000000000000020816681711721685132943093776703e-02
4.600000000000002420286193682841258123517036437988e-01,-1.887079274545410967345304698028485290706157684326e-01,1.916487263715479366643634762112924363464117050171e-02,1.000000000000000020816681711721685132943093776703e-02
4.700000000000002509104035652853781357407569885254e-01,-1.886693406535431827286686257139081135392189025879e-01,1.936434124914880941514816470316873164847493171692e-02,1.000000000000000020816681711721685132943093776703e-02
4.800000000000002597921877622866304591298103332520e-01,-1.886302856446071540830189405824057757854461669922e-01,1.956382533779198185097669693277566693723201751709e-02,1.000000000000000020816681711721685132943093776703e-02
4.900000000000002686739719592878827825188636779785e-01,-1.885907611170213604712131427731947042047977447510e-01,1.976332519941979837252432616878650151193141937256e-02,1.000000000000000020816681711721685132943093776703e-02
5.000000000000002220446049250313080847263336181641e-01,-1.885507657629611755201182177188456989824771881104e-01,1.996284112626398044021414079907117411494255065918e-02,1.000000000000000020816681711721685132943093776703e-02
5.100000000000002309263891220325604081153869628906e-01,-1.885102982775208602106431499123573303222656250000e-01,2.016237340647844891727835658912226790562272071838e-02,1.000000000000000020816681711721685132943093776703e-02
5.200000000000002398081733190338127315044403076172e-01,-1.884693573587453152562432023842120543122291564941e-01,2.036192232416542471917786372159753227606415748596e-02,1.000000000000000020816681711721685132943093776703e-02
5.300000000000002486899575160350650548934936523438e-01,-1.884279417076617502146973492926917970180511474609e-01,2.056148815940173069094498714548535645008087158203e-02,1.000000000000000020816681711721685132943093776703e-02
5.400000000000002575717417130363173782825469970703e-01,-1.883860500283112693331588616274530068039894104004e-01,2.076107118826525307908603679152292897924780845642e-02,1.000000000000000020816681711721685132943093776703e-02
5.500000000000002664535259100375697016716003417969e-01,-1.883436810277801798374497366239666007459163665771e-01,2.096067168286157994527840742193802725523710250854e-02,1.000000000000000020816681711721685132943093776703e-02
5.600000000000002753353101070388220250606536865234e-01,-1.883008334162314112436575896936119534075260162354e-01,2.116028991135080264407442030005768174305558204651e-02,1.000000000000000020816681711721685132943093776703e-02
5.700000000000002842170943040400743484497070312500e-01,-1.882575059069356571139763900646357797086238861084e-01,2.135992613797450118129361840146884787827730178833e-02,1.000000000000000020816681711721685132943093776703e-02
5.800000000000002930988785010413266718387603759766e-01,-1.882136972163024335458203495363704860210418701172e-01,2.155958062308289610586875539866014150902628898621e-02,1.000000000000000020816681711721685132943093776703e-02
5.900000000000003019806626980425789952278137207031e-01,-1.881694060639110266386353487177984789013862609863e-01,2.175925362316217040459243037275882670655846595764e-02,1.000000000000000020816681711721685132943093776703e-02
6.000000000000003108624468950438313186168670654297e-01,-1.881246311725412734272566694926354102790355682373e-01,2.195894539086195446087046434513467829674482345581e-02,1.000000000000000020816681711721685132943093776703e-02
6.100000000000003197442310920450836420059204101562e-01,-1.880793712682043428152667274844134226441383361816e-01,2.215865617502300183305763425778422970324754714966e-02,1.000000000000000020816681711721685132943093776703e-02
6.200000000000003286260152890463359653949737548828e-01,-1.880336250801731556858698013456887565553188323975e-01,2.235838622070501074956538900551095139235258102417e-02,1.000000000000000020816681711721685132943093776703e-02
6.300000000000003375077994860475882887840270996094e-01,-1.879873913410129160350692245629034005105495452881e-01,2.255813576921463642355192291688581462949514389038e-02,1.000000000000000020816681711721685132943093776703e-02
6.400000000000003463895836830488406121730804443359e-01,-1.879406687866113645490884209721116349101066589355e-01,2.275790505813365602327813519423216348513960838318e-02,1.000000000000000020816681711721685132943093776703e-02
6.500000000000003552713678800500929355621337890625e-01,-1.878934561562088934039138621301390230655670166016e-01,2.295769432134730711481118703432002803310751914978e-02,1.000000000000000020816681711721685132943093776703e-02
6.600000000000003641531520770513452589511871337891e-01,-1.878457521924286055536867934279143810272216796875e-01,2.315750378907279957707565642976987874135375022888e-02,1.000000000000000020816681711721685132943093776703e-02
6.700000000000003730349362740525975823402404785156e-01,-1.877975556413062074856412664303206838667392730713e-01,2.335733368788798711146448283670906675979495048523e-02,1.000000000000000020816681711721685132943093776703e-02
6.800000000000003819167204710538499057292938232422e-01,-1.877488652523196521748616305558243766427040100098e-01,2.355718424076021222379750952313770540058612823486e-02,1.000000000000000020816681711721685132943093776703e-02
6.900000000000003907985046680551022291183471679688e-01,-1.876996797784188097946156403850181959569454193115e-01,2.375705566707530733139286382993304869160056114197e-02,1.000000000000000020816681711721685132943093776703e-02
7.000000000000003996802888650563545525074005126953e-01,-1.876499979760548886265070223089423961937427520752e-01,2.395694818266677628137983901979168877005577087402e-02,1.000000000000000020816681711721685132943093776703e-02
7.100000000000004085620730620576068758964538574219e-01,-1.875998186052096894371743474039249122142791748047e-01,2.415686199984512852467766208519606152549386024475e-02,1.000000000000000020816681711721685132943093776703e-02
7.200000000000004174438572590588591992855072021484e-01,-1.875491404294248043438386730485945008695125579834e-01,2.435679732742737982342795532986201578751206398010e-02,1.000000000000000020816681711721685132943093776703e-02
7.300000000000004263256414560601115226745605468750e-01,-1.874979622158305658796706438806722871959209442139e-01,2.455675437076672643077479563089582370594143867493e-02,1.000000000000000020816681711721685132943093776703e-02
7.400000000000004352074256530613638460636138916016e-01,-1.874462827351748850368551302381092682480812072754e-01,2.475673333178236151796980379913293290883302688599e-02,1.000000000000000020816681711721685132943093776703e-02
7.500000000000004440892098500626161694526672363281e-01,-1.873941007618519227762021728267427533864974975586e-01,2.495673440898948242105959138825710397213697433472e-02,1.000000000000000020816681711721685132943093776703e-02
7.600000000000004529709940470638684928417205810547e-01,-1.873414150739306505144554648722987622022628784180e-01,2.515675779752943666545128564848710084334015846252e-02,1.000000000000000020816681711721685132943093776703e-02
7.700000000000004618527782440651208162307739257812e-01,-1.872882244531831608114202936121728271245956420898e-01,2.535680368920003105448479630013025598600506782532e-02,1.000000000000000020816681711721685132943093776703e-02
7.800000000000004707345624410663731396198272705078e-01,-1.872345276851128947903646349004702642560005187988e-01,2.555687227248602116924658389507385436445474624634e-02,1.000000000000000020816681711721685132943093776703e-02
7.900000000000004796163466380676254630088806152344e-01,-1.871803235589826475138153227817383594810962677002e-01,2.575696373258973270736760241561569273471832275391e-02,1.000000000000000020816681711721685132943093776703e-02
8.000000000000004884981308350688777863979339599609e-01,-1.871256108678424345814761409201310016214847564697e-01,2.595707825146185976361579150761826895177364349365e-02,1.000000000000000020816681711721685132943093776703e-02
8.100000000000004973799150320701301097869873046875e-01,-1.870703884085571921946922202550922520458698272705e-01,2.615721600783241229670750271907309070229530334473e-02,1.000000000000000020816681711721685132943093776703e-02
8.200000000000005062616992290713824331760406494141e-01,-1.870146549818343384430363585124723613262176513672e-01,2.635737717724183012957261951214604778215289115906e-02,1.000000000000000020816681711721685132943093776703e-02
8.300000000000005151434834260726347565650939941406e-01,-1.869584093922510570351391834265086799860000610352e-01,2.655756193207223919694470737340452615171670913696e-02,1.000000000000000020816681711721685132943093776703e-02
8.400000000000005240252676230738870799541473388672e-01,-1.869016504482814977627924690750660374760627746582e-01,2.675777044157887085695790574391139671206474304199e-02,1.000000000000000020816681711721685132943093776703e-02
8.500000000000005329070518200751394033432006835938e-01,-1.868443769623238104315987584413960576057434082031e-01,2.695800287192164079730360981557168997824192047119e-02,1.000000000000000020816681711721685132943093776703e-02
8.600000000000005417888360170763917267322540283203e-01,-1.867865877507269012358648296867613680660724639893e-01,2.715825938619687365815913437927520135417580604553e-02,1.000000000000000020816681711721685132943093776703e-02
8.700000000000005506706202140776440501213073730469e-01,-1.867282816338171058667683155363192781805992126465e-01,2.735854014446917337188835972483502700924873352051e-02,1.000000000000000020816681711721685132943093776703e-02
8.800000000000005595524044110788963735103607177734e-01,-1.866694574359246683314950132626108825206756591797e-01,2.755884530380346697508997522163554094731807708740e-02,1.000000000000000020816681711721685132943093776703e-02
8.900000000000005684341886080801486968994140625000e-01,-1.866101139854099422166200383799150586128234863281e-01,2.775917501829716985128904127577698091045022010803e-02,1.000000000000000020816681711721685132943093776703e-02
