time,u0,u1,tau
0.000000000000000000000000000000000000000000000000e+00,-2.999999999999999888977697537484345957636833190918e-02,5.999999999999999777955395074968691915273666381836e-02,1.000000000000000020816681711721685132943093776703e-02
1.000000000000000020816681711721685132943093776703e-02,-2.996509005895462915414206861441925866529345512390e-02,5.999351176364211418734484482229163404554128646851e-02,1.000000000000000020816681711721685132943093776703e-02
2.000000000000000041633363423443370265886187553406e-02,-2.992996582244926082050362481368210865184664726257e-02,5.998725273349080067131211535524926148355007171631e-02,1.000000000000000020816681711721685132943093776703e-02
2.999999999999999888977697537484345957636833190918e-02,-2.989462716343629922199909287883201614022254943848e-02,5.998122293753901240753734214194992091506719589233e-02,1.000000000000000020816681711721685132943093776703e-02
4.000000000000000083266726846886740531772375106812e-02,-2.985907395369192043887984766570298234000802040100e-02,5.997542240502121146938918627711245790123939514160e-02,1.000000000000000020816681711721685132943093776703e-02
5.000000000000000277555756156289135105907917022705e-02,-2.982330606381178306207857531262561678886413574219e-02,5.996985116641442153939678405549784656614065170288e-02,1.000000000000000020816681711721685132943093776703e-02
6.000000000000000471844785465691529680043458938599e-02,-2.978732336320678852903398592388839460909366607666e-02,5.996450925343925486554752524170908145606517791748e-02,1.000000000000000020816681711721685132943093776703e-02
7.000000000000000666133814775093924254179000854492e-02,-2.975112572009883452062162234597053611651062965393e-02,5.995939669906087676753969617493567056953907012939e-02,1.000000000000000020816681711721685132943093776703e-02
8.000000000000000166533453693773481063544750213623e-02,-2.971471300151659611366028457268839702010154724121e-02,5.995451353748999789861073850261163897812366485596e-02,1.000000000000000020816681711721685132943093776703e-02
8.999999999999999666933092612453037872910499572754e-02,-2.967808507329132775010016587202699156478047370911e-02,5.994985980418377630174475712010462302714586257935e-02,1.000000000000000020816681711721685132943093776703e-02
9.999999999999999167332731531132594682276248931885e-02,-2.964124180005266520621098891297151567414402961731e-02,5.994543553584674722145564373931847512722015380859e-02,1.000000000000000020816681711721685132943093776703e-02
1.099999999999999866773237044981215149164199829102e-01,-2.960418304522446225623966142848075833171606063843e-02,5.994124077043169740441896919946884736418724060059e-02,1.000000000000000020816681711721685132943093776703e-02
1.199999999999999816813200936849170830100774765015e-01,-2.956690867102063427496183578568889060989022254944e-02,5.993727554714049776674045233448850922286510467529e-02,1.000000000000000020816681711721685132943093776703e-02
1.299999999999999766853164828717126511037349700928e-01,-2.952941853844101918746822832417819881811738014221e-02,5.993353990642493606122442884043266531080007553101e-02,1.000000000000000020816681711721685132943093776703e-02
1.399999999999999855671006798729649744927883148193e-01,-2.949171250726725576618569846232276177033782005310e-02,5.993003388998751485017280060674238484352827072144e-02,1.000000000000000020816681711721685132943093776703e-02
1.499999999999999944488848768742172978818416595459e-01,-2.945379043605868274458003952531726099550724029541e-02,5.992675754078220090592665769690938759595155715942e-02,1.000000000000000020816681711721685132943093776703e-02
1.600000000000000033306690738754696212708950042725e-01,-2.941565218214823793085876957320579094812273979187e-02,5.992371090301517461140790032914082985371351242065e-02,1.000000000000000020816681711721685132943093776703e-02
1.700000000000000122124532708767219446599483489990e-01,-2.937729760163839548559039371866674628108739852905e-02,5.992089402214552384950962959919706918299198150635e-02,1.000000000000000020816681711721685132943093776703e-02
1.800000000000000210942374678779742680490016937256e-01,-2.933872654939710319932366644479770911857485771179e-02,5.991830694488592401469873038877267390489578247070e-02,1.000000000000000020816681711721685132943093776703e-02
1.900000000000000299760216648792265914380550384521e-01,-2.929993887905373364799466173735709162428975105286e-02,5.991594971920329026904283864496392197906970977783e-02,1.000000000000000020816681711721685132943093776703e-02
2.000000000000000388578058618804789148271083831787e-01,-2.926093444299506657335641079953347798436880111694e-02,5.991382239431939510376778912359441164880990982056e-02,1.000000000000000020816681711721685132943093776703e-02
2.100000000000000477395900588817312382161617279053e-01,-2.922171309236127126340853976671496639028191566467e-02,5.991192502071145120634554359639878384768962860107e-02,1.000000000000000020816681711721685132943093776703e-02
2.200000000000000566213742558829835616052150726318e-01,-2.918227467704190974950861914294364396482706069946e-02,5.991025765011268738868821515097806695848703384399e-02,1.000000000000000020816681711721685132943093776703e-02
2.300000000000000655031584528842358849942684173584e-01,-2.914261904567195388127132105182681698352098464966e-02,5.990882033551286206529695732569962274283170700073e-02,1.000000000000000020816681711721685132943093776703e-02
2.400000000000000743849426498854882083833217620850e-01,-2.910274604562781974870233625551918521523475646973e-02,5.990761313115877673141085324459709227085113525391e-02,1.000000000000000020816681711721685132943093776703e-02
2.500000000000000555111512312578270211815834045410e-01,-2.906265552302341598212009898816177155822515487671e-02,5.990663609255473393000457349444332066923379898071e-02,1.000000000000000020816681711721685132943093776703e-02
2.600000000000000643929354282590793445706367492676e-01,-2.902234732270620592986531960377760697156190872192e-02,5.990588927646299521878603400182328186929225921631e-02,1.000000000000000020816681711721685132943093776703e-02
2.700000000000000732747196252603316679596900939941e-01,-2.898182128825328024435137308500998187810182571411e-02,5.990537274090417668714891874515160452574491500854e-02,1.000000000000000020816681711721685132943093776703e-02
2.800000000000000821565038222615839913487434387207e-01,-2.894107726196745375424335122716001933440566062927e-02,5.990508654515765141201910637391847558319568634033e-02,1.000000000000000020816681711721685132943093776703e-02
2.900000000000000910382880192628363147377967834473e-01,-2.890011508487337274497797068306681467220187187195e-02,5.990503074976186864697424994119501207023859024048e-02,1.000000000000000020816681711721685132943093776703e-02
3.000000000000000999200722162640886381268501281738e-01,-2.885893459671362570873043296160176396369934082031e-02,5.990520541651470770583287617228052113205194473267e-02,1.000000000000000020816681711721685132943093776703e-02
3.100000000000001088018564132653409615159034729004e-01,-2.881753563594488184995690005507640307769179344177e-02,5.990561060847374164062273393938085064291954040527e-02,1.000000000000000020816681711721685132943093776703e-02
3.200000000000001176836406102665932849049568176270e-01,-2.877591803973404693817172983472119085490703582764e-02,5.990624638995651479733695055074349511414766311646e-02,1.000000000000000020816681711721685132943093776703e-02
3.300000000000001265654248072678456082940101623535e-01,-2.873408164395441222183080753893591463565826416016e-02,5.990711282654076486053895678196568042039871215820e-02,1.000000000000000020816681711721685132943093776703e-02
3.400000000000001354472090042690979316830635070801e-01,-2.869202628318183803668439679768198402598500251770e-02,5.990820998506461714239179627838893793523311614990e-02,1.000000000000000020816681711721685132943093776703e-02
3.500000000000001443289932012703502550721168518066e-01,-2.864975179069094435302389456410310231149196624756e-02,5.990953793362675805500572323580854572355747222900e-02,1.000000000000000020816681711721685132943093776703e-02
3.600000000000001532107773982716025784611701965332e-01,-2.860725799845130132292858604614593787118792533875e-02,5.991109674158656001052847273058432620018720626831e-02,1.000000000000000020816681711721685132943093776703e-02
3.700000000000001620925615952728549018502235412598e-01,-2.856454473712366146087582308155106147751212120056e-02,5.991288647956419244344772323529468849301338195801e-02,1.000000000000000020816681711721685132943093776703e-02
3.800000000000001709743457922741072252392768859863e-01,-2.852161183605618141601034665200131712481379508972e-02,5.991490721944070507731794350547716021537780761719e-02,1.000000000000000020816681711721685132943093776703e-02
3.900000000000001798561299892753595486283302307129e-01,-2.847845912328066456109532111895532580092549324036e-02,5.991715903435804180254820039408514276146888732910e-02,1.000000000000000020816681711721685132943093776703e-02
4.000000000000001887379141862766118720173835754395e-01,-2.843508642550881398980422432032355573028326034546e-02,5.991964199871906843197777448040142189711332321167e-02,1.000000000000000020816681711721685132943093776703e-02
4.100000000000001976196983832778641954064369201660e-01,-2.839149356812850633069444938882952556014060974121e-02,5.992235618818755882308835225558141246438026428223e-02,1.000000000000000020816681711721685132943093776703e-02
4.200000000000002065014825802791165187954902648926e-01,-2.834768037520007250007481047759938519448041915894e-02,5.992530167968811161127717923591262660920619964600e-02,1.000000000000000020816681711721685132943093776703e-02
4.300000000000002153832667772803688421845436096191e-01,-2.830364666945259233266085630020825192332267761230e-02,5.992847855140608082091802089053089730441570281982e-02,1.000000000000000020816681711721685132943093776703e-02
4.400000000000002242650509742816211655735969543457e-01,-2.825939227228019615112408757795492419973015785217e-02,5.993188688278745096527089231130958069115877151489e-02,1.000000000000000020816681711721685132943093776703e-02
4.500000000000002331468351712828734889626502990723e-01,-2.821491700373839409121679011605010600760579109192e-02,5.993552675453869826860398006829200312495231628418e-02,1.000000000000000020816681711721685132943093776703e-02
4.600000000000002420286193682841258123517036437988e-01,-2.817022068254039501855601201896206475794315338135e-02,5.993939824862657556048262108561175409704446792603e-02,1.000000000000000020816681711721685132943093776703e-02
4.700000000000002509104035652853781357407569885254e-01,-2.812530312605346707877096434913255507126450538635e-02,5.994350144827792492563389714632648974657058715820e-02,1.000000000000000020816681711721685132943093776703e-02
4.800000000000002597921877622866304591298103332520e-01,-2.808016415029527743096871006400760961696505546570e-02,5.994783643797940014819047860328282695263624191284e-02,1.000000000000000020816681711721685132943093776703e-02
4.900000000000002686739719592878827825188636779785e-01,-2.803480356993027361456327639643859583884477615356e-02,5.995240330347720997261617981166637036949396133423e-02,1.000000000000000020816681711721685132943093776703e-02
5.000000000000002220446049250313080847263336181641e-01,-2.798922119826605797721086332785489503294229507446e-02,5.995720213177676422011685986035445239394903182983e-02,1.000000000000000020816681711721685132943093776703e-02
5.100000000000002309263891220325604081153869628906e-01,-2.794341684724978291942676378312171436846256256104e-02,5.996223301114236153841474674663913901895284652710e-02,1.000000000000000020816681711721685132943093776703e-02
5.200000000000002398081733190338127315044403076172e-01,-2.789739032746455654754313968624046538025140762329e-02,5.996749603109676612922029903529619332402944564819e-02,1.000000000000000020816681711721685132943093776703e-02
5.300000000000002486899575160350650548934936523438e-01,-2.785114144812585526556070192327752010896801948547e-02,5.997299128242081223127968314656754955649375915527e-02,1.000000000000000020816681711721685132943093776703e-02
5.400000000000002575717417130363173782825469970703e-01,-2.780467001707795371423515007336391136050224304199e-02,5.997871885715294615337711547908838838338851928711e-02,1.000000000000000020816681711721685132943093776703e-02
5.500000000000002664535259100375697016716003417969e-01,-2.775797584079036164905751604692341061308979988098e-02,5.998467884858872667397378108944394625723361968994e-02,1.000000000000000020816681711721685132943093776703e-02
5.600000000000002753353101070388220250606536865234e-01,-2.771105872435428163491621944558573886752128601074e-02,5.999087135128031850195284846449794713407754898071e-02,1.000000000000000020816681711721685132943093776703e-02
5.700000000000002842170943040400743484497070312500e-01,-2.766391847147906327131217096848558867350220680237e-02,5.999729646103593022621325303589401300996541976929e-02,1.000000000000000020816681711721685132943093776703e-02
5.800000000000002930988785010413266718387603759766e-01,-2.761655488448868170370253949386096792295575141907e-02,6.000395427491920369300615334395843092352151870728e-02,1.000000000000000020816681711721685132943093776703e-02
5.900000000000003019806626980425789952278137207031e-01,-2.756896776431821960429147111426573246717453002930e-02,6.001084489124861032216529110883129760622978210449e-02,1.000000000000000020816681711721685132943093776703e-02
6.000000000000003108624468950438313186168670654297e-01,-2.752115691051036650005556793985306285321712493896e-02,6.001796840959677109550440832208551000803709030151e-02,1.000000000000000020816681711721685132943093776703e-02
6.100000000000003197442310920450836420059204101562e-01,-2.747312212121192503966327080888731870800256729126e-02,6.002532493078977654521466433834575582295656204224e-02,1.000000000000000020816681711721685132943093776703e-02
6.200000000000003286260152890463359653949737548828e-01,-2.742486319317032072984119395187008194625377655029e-02,6.003291455690643735332301389462372753769159317017e-02,1.000000000000000020816681711721685132943093776703e-02
6.300000000000003375077994860475882887840270996094e-01,-2.737637992173013595786912333096552174538373947144e-02,6.004073739127750719557496950073982588946819305420e-02,1.000000000000000020816681711721685132943093776703e-02
6.400000000000003463895836830488406121730804443359e-01,-2.732767210082965442241587084026832599192857742310e-02,6.004879353848490558531736382974486332386732101440e-02,1.000000000000000020816681711721685132943093776703e-02
6.500000000000003552713678800500929355621337890625e-01,-2.727873952299740556437512850607163272798061370850e-02,6.005708310436084357286645740714448038488626480103e-02,1.000000000000000020816681711721685132943093776703e-02
6.600000000000003641531520770513452589511871337891e-01,-2.722958197934871940604217854797752806916832923889e-02,6.006560619598696332266385411458031740039587020874e-02,1.000000000000000020816681711721685132943093776703e-02
6.700000000000003730349362740525975823402404785156e-01,-2.718019925958230567641926711530686588957905769348e-02,6.007436292169342217928118543568416498601436614990e-02,1.000000000000000020816681711721685132943093776703e-02
6.800000000000003819167204710538499057292938232422e-01,-2.713059115197682946707402606989489868283271789551e-02,6.008335339105792816116746735133347101509571075439e-02,1.000000000000000020816681711721685132943093776703e-02
6.900000000000003907985046680551022291183471679688e-01,-2.708075744338750770467960649057204136624932289124e-02,6.009257771490475463771474551322171464562416076660e-02,1.000000000000000020816681711721685132943093776703e-02
7.000000000000003996802888650563545525074005126953e-01,-2.703069791924270562355481217764463508501648902893e-02,6.010203600530372725074812478851526975631713867188e-02,1.000000000000000020816681711721685132943093776703e-02
7.100000000000004085620730620576068758964538574219e-01,-2.698041236354054711599204097183246631175279617310e-02,6.011172837556913450818285582499811425805091857910e-02,1.000000000000000020816681711721685132943093776703e-02
7.200000000000004174438572590588591992855072021484e-01,-2.692990055884554242981998584127723006531596183777e-02,6.012165494025864531657532552344491705298423767090e-02,1.000000000000000020816681711721685132943093776703e-02
7.300000000000004263256414560601115226745605468750e-01,-2.687916228628521239651938401493680430576205253601e-02,6.013181581517215712473500843771034851670265197754e-02,1.000000000000000020816681711721685132943093776703e-02
7.400000000000004352074256530613638460636138916016e-01,-2.682819732554673347602047783766465727239847183228e-02,6.014221111735063018954861036036163568496704101562e-02,1.000000000000000020816681711721685132943093776703e-02
7.500000000000004440892098500626161694526672363281e-01,-2.677700545487358974039437953251763246953487396240e-02,6.015284096507484551397126892879896331578493118286e-02,1.000000000000000020816681711721685132943093776703e-02
7.600000000000004529709940470638684928417205810547e-01,-2.672558645106222832699138791667792247608304023743e-02,6.016370547786416972391165813860425259917974472046e-02,1.000000000000000020816681711721685132943093776703e-02
7.700000000000004618527782440651208162307739257812e-01,-2.667394008945873570826101683906017569825053215027e-02,6.017480477647525749507195769183454103767871856689e-02,1.000000000000000020816681711721685132943093776703e-02
7.800000000000004707345624410663731396198272705078e-01,-2.662206614395551396157202361791860312223434448242e-02,6.018613898290070540753049499471671879291534423828e-02,1.000000000000000020816681711721685132943093776703e-02
7.900000000000004796163466380676254630088806152344e-01,-2.656996438698796744737329333929665153846144676208e-02,6.019770822036769192253657934088550973683595657349e-02,1.000000000000000020816681711721685132943093776703e-02
8.000000000000004884981308350688777863979339599609e-01,-2.651763458953120683458948292354762088507413864136e-02,6.020951261333656184815410483679443132132291793823e-02,1.000000000000000020816681711721685132943093776703e-02
8.100000000000004973799150320701301097869873046875e-01,-2.646507652109674965656971323824109276756644248962e-02,6.022155228749936223264782597652811091393232345581e-02,1.000000000000000020816681711721685132943093776703e-02
8.200000000000005062616992290713824331760406494141e-01,-2.641228994972924168371797293275449192151427268982e-02,6.023382736977835050229401758770109154284000396729e-02,1.000000000000000020816681711721685132943093776703e-02
8.300000000000005151434834260726347565650939941406e-01,-2.635927464200318176557047422647883649915456771851e-02,6.024633798832448178250942305567150469869375228882e-02,1.000000000000000020816681711721685132943093776703e-02
8.400000000000005240252676230738870799541473388672e-01,-2.630603036301966055066081651148124365136027336121e-02,6.025908427251579907446554784655745606869459152222e-02,1.000000000000000020816681711721685132943093776703e-02
8.500000000000005329070518200751394033432006835938e-01,-2.625255687640309573693819800155324628576636314392e-02,6.027206635295585118727856865916692186146974563599e-02,1.000000000000000020816681711721685132943093776703e-02
8.600000000000005417888360170763917267322540283203e-01,-2.619885394429798813886733910294424276798963546753e-02,6.028528436147201352568458787573035806417465209961e-02,1.000000000000000020816681711721685132943093776703e-02
8.700000000000005506706202140776440501213073730469e-01,-2.614492132736568816286926164593751309439539909363e-02,6.029873843111380193882098410540493205189704895020e-02,1.000000000000000020816681711721685132943093776703e-02
8.800000000000005595524044110788963735103607177734e-01,-2.609075878478116228276206811642623506486415863037e-02,6.031242869615112411896262756272335536777973175049e-02,1.000000000000000020816681711721685132943093776703e-02
8.900000000000005684341886080801486968994140625000e-01,-2.603636607422976645409562479471787810325622558594e-02,6.032635529207251018357638372435758356004953384399e-02,1.000000000000000020816681711721685132943093776703e-02
