time,u0,u1,tau
0.000000000000000000000000000000000000000000000000e+00,-2.999999999999999888977697537484345957636833190918e-02,-2.000000000000000388578058618804789148271083831787e-02,1.000000000000000020816681711721685132943093776703e-02
1.000000000000000020816681711721685132943093776703e-02,-3.000907770888404726972176206345466198399662971497e-02,-2.001047726937531939794823188094596844166517257690e-02,1.000000000000000020816681711721685132943093776703e-02
2.000000000000000041633363423443370265886187553406e-02,-3.001823598582885332941572187337442301213741302490e-02,-2.002103161717727966562030417208006838336586952209e-02,1.000000000000000020816681711721685132943093776703e-02
2.999999999999999888977697537484345957636833190918e-02,-3.002747495174653766247807595846097683534026145935e-02,-2.003166313964214323428691955086833331733942031860e-02,1.000000000000000020816681711721685132943093776703e-02
4.000000000000000083266726846886740531772375106812e-02,-3.003679472802645716855707291870203334838151931763e-02,-2.004237193340330236424051690846681594848632812500e-02,1.000000000000000020816681711721685132943093776703e-02
5.000000000000000277555756156289135105907917022705e-02,-3.004619543653614527345396822965994942933320999146e-02,-2.005315809549152589186249429076269734650850296021e-02,1.000000000000000020816681711721685132943093776703e-02
6.000000000000000471844785465691529680043458938599e-02,-3.005567719962222092422443608938920078799128532410e-02,-2.006402172333516739644032611522561637684702873230e-02,1.000000000000000020816681711721685132943093776703e-02
7.000000000000000666133814775093924254179000854492e-02,-3.006524014011131840096169298703898675739765167236e-02,-2.007496291476038030587858429498737677931785583496e-02,1.000000000000000020816681711721685132943093776703e-02
8.000000000000000166533453693773481063544750213623e-02,-3.007488438131099631189790954977070214226841926575e-02,-2.008598176799131565517519959485071012750267982483e-02,1.000000000000000020816681711721685132943093776703e-02
8.999999999999999666933092612453037872910499572754e-02,-3.008461004701064311905867043606122024357318878174e-02,-2.009707838165031637545077103368384996429085731506e-02,1.000000000000000020816681711721685132943093776703e-02
9.999999999999999167332731531132594682276248931885e-02,-3.009441726148238266391743422900617588311433792114e-02,-2.010825285475808729684921161151578417047858238220e-02,1.000000000000000020816681711721685132943093776703e-02
1.099999999999999866773237044981215149164199829102e-01,-3.010430614948196581526218551516649313271045684814e-02,-2.011950528673387555977924989747407380491495132446e-02,1.000000000000000020816681711721685132943093776703e-02
1.199999999999999816813200936849170830100774765015e-01,-3.011427683624965517816818305618653539568185806274e-02,-2.013083577739563020947421989603753900155425071716e-02,1.000000000000000020816681711721685132943093776703e-02
1.299999999999999766853164828717126511037349700928e-01,-3.012432944751111327241765991402644431218504905701e-02,-2.014224442696014791276404309883218957111239433289e-02,1.000000000000000020816681711721685132943093776703e-02
1.399999999999999855671006798729649744927883148193e-01,-3.013446410947827683313171576173772336915135383606e-02,-2.015373133604322214429416249004134442657232284546e-02,1.000000000000000020816681711721685132943093776703e-02
1.499999999999999944488848768742172978818416595459e-01,-3.014468094885022417250830528701044386252760887146e-02,-2.016529660565977155606276483013061806559562683105e-02,1.000000000000000020816681711721685132943093776703e-02
1.600000000000000033306690738754696212708950042725e-01,-3.015498009281404948045413050294882850721478462219e-02,-2.017694033722395446917019512511615175753831863403e-02,1.000000000000000020816681711721685132943093776703e-02
1.700000000000000122124532708767219446599483489990e-01,-3.016536166904570243074701352270494680851697921753e-02,-2.018866263254929377390922695667541120201349258423e-02,1.000000000000000020816681711721685132943093776703e-02
1.800000000000000210942374678779742680490016937256e-01,-3.017582580571086248166778887025429867208003997803e-02,-2.020046359384876713538581327611609594896435737610e-02,1.000000000000000020816681711721685132943093776703e-02
1.900000000000000299760216648792265914380550384521e-01,-3.018637263146576113492791648695856565609574317932e-02,-2.021234332373490413803374110557342646643519401550e-02,1.000000000000000020816681711721685132943093776703e-02
2.000000000000000388578058618804789148271083831787e-01,-3.019700227545803888906661427427025046199560165405e-02,-2.022430192521986608289452647113648708909749984741e-02,1.000000000000000020816681711721685132943093776703e-02
2.100000000000000477395900588817312382161617279053e-01,-3.020771486732757096782542305390961701050400733948e-02,-2.023633950171551190710950152151781367138028144836e-02,1.000000000000000020816681711721685132943093776703e-02
2.200000000000000566213742558829835616052150726318e-01,-3.021851053720729304852277152804163051769137382507e-02,-2.024845615703347104230580555395135888829827308655e-02,1.000000000000000020816681711721685132943093776703e-02
2.300000000000000655031584528842358849942684173584e-01,-3.022938941572402005153463733222451992332935333252e-02,-2.026065199538517810906590455033438047394156455994e-02,1.000000000000000020816681711721685132943093776703e-02
2.400000000000000743849426498854882083833217620850e-01,-3.024035163399926839922216004197252914309501647949e-02,-2.027292712138192495863187048144027357921004295349e-02,1.000000000000000020816681711721685132943093776703e-02
2.500000000000000555111512312578270211815834045410e-01,-3.025139732365005051928363855040515772998332977295e-02,-2.028528164003488495903404498221789253875613212585e-02,1.000000000000000020816681711721685132943093776703e-02
2.600000000000000643929354282590793445706367492676e-01,-3.026252661678968669534128821396734565496444702148e-02,-2.029771565675513381177275107347668381407856941223e-02,1.000000000000000020816681711721685132943093776703e-02
2.700000000000000732747196252603316679596900939941e-01,-3.027373964602859263139933432285033632069826126099e-02,-2.031022927735365649071219706911506364122033119202e-02,1.000000000000000020816681711721685132943093776703e-02
2.800000000000000821565038222615839913487434387207e-01,-3.028503654447507395519600947864091722294688224792e-02,-2.032282260804134377263352462250622920691967010498e-02,1.000000000000000020816681711721685132943093776703e-02
2.900000000000000910382880192628363147377967834473e-01,-3.029641744573609990487383925028552766889333724976e-02,-2.033549575542898529834090481926978100091218948364e-02,1.000000000000000020816681711721685132943093776703e-02
3.000000000000000999200722162640886381268501281738e-01,-3.030788248391808742399078369089693296700716018677e-02,-2.034824882652723834763897059474402340129017829895e-02,1.000000000000000020816681711721685132943093776703e-02
3.100000000000001088018564132653409615159034729004e-01,-3.031943179362765750095576322564738802611827850342e-02,-2.036108192874659661431024915145826525986194610596e-02,1.000000000000000020816681711721685132943093776703e-02
3.200000000000001176836406102665932849049568176270e-01,-3.033106550997240538625199235411855624988675117493e-02,-2.037399516989734510330478656214836519211530685425e-02,1.000000000000000020816681711721685132943093776703e-02
3.300000000000001265654248072678456082940101623535e-01,-3.034278376856165346242555358458048431202769279480e-02,-2.038698865818950461958891651192971039563417434692e-02,1.000000000000000020816681711721685132943093776703e-02
3.400000000000001354472090042690979316830635070801e-01,-3.035458670550720064462701941465638810768723487854e-02,-2.040006250223276584865317317962762899696826934814e-02,1.000000000000000020816681711721685132943093776703e-02
3.500000000000001443289932012703502550721168518066e-01,-3.036647445742406484225917040475906105712056159973e-02,-2.041321681103640608978544435103685827925801277161e-02,1.000000000000000020816681711721685132943093776703e-02
3.600000000000001532107773982716025784611701965332e-01,-3.037844716143121154283690543707052711397409439087e-02,-2.042645169400920251989717257856682408601045608521e-02,1.000000000000000020816681711721685132943093776703e-02
3.700000000000001620925615952728549018502235412598e-01,-3.039050495515229280418800783536426024511456489563e-02,-2.043976726095933504900870048004435375332832336426e-02,1.000000000000000020816681711721685132943093776703e-02
3.800000000000001709743457922741072252392768859863e-01,-3.040264797671635502163134390229970449581742286682e-02,-2.045316362209426835905290431583125609904527664185e-02,1.000000000000000020816681711721685132943093776703e-02
3.900000000000001798561299892753595486283302307129e-01,-3.041487636475856057294286927117354935035109519958e-02,-2.046664088802063394267882756594190141186118125916e-02,1.000000000000000020816681711721685132943093776703e-02
4.000000000000001887379141862766118720173835754395e-01,-3.042719025842090252442773135044262744486331939697e-02,-2.048019916974409479482055473908985732123255729675e-02,1.000000000000000020816681711721685132943093776703e-02
4.100000000000001976196983832778641954064369201660e-01,-3.043958979735289158141675613933330168947577476501e-02,-2.049383857866919969592522932089195819571614265442e-02,1.000000000000000020816681711721685132943093776703e-02
4.200000000000002065014825802791165187954902648926e-01,-3.045207512171226038599769481152179650962352752686e-02,-2.050755922659922014794631195400143042206764221191e-02,1.000000000000000020816681711721685132943093776703e-02
4.300000000000002153832667772803688421845436096191e-01,-3.046464637216564352861780662351520732045173645020e-02,-2.052136122573598731033683861824101768434047698975e-02,1.000000000000000020816681711721685132943093776703e-02
4.400000000000002242650509742816211655735969543457e-01,-3.047730368988926102913339377664669882506132125854e-02,-2.053524468867971505825487099627935094758868217468e-02,1.000000000000000020816681711721685132943093776703e-02
4.500000000000002331468351712828734889626502990723e-01,-3.049004721656959140951848041822813684120774269104e-02,-2.054920972842880222408723511762218549847602844238e-02,1.000000000000000020816681711721685132943093776703e-02
4.600000000000002420286193682841258123517036437988e-01,-3.050287709440403435823263578186015365645289421082e-02,-2.056325645837962790007935609537526033818721771240e-02,1.000000000000000020816681711721685132943093776703e-02
4.700000000000002509104035652853781357407569885254e-01,-3.051579346610156992514184537412802455946803092957e-02,-2.057738499232633980207118895577877992764115333557e-02,1.000000000000000020816681711721685132943093776703e-02
4.800000000000002597921877622866304591298103332520e-01,-3.052879647488341424699243020768335554748773574829e-02,-2.059159544446062528599838969967095181345939636230e-02,1.000000000000000020816681711721685132943093776703e-02
4.900000000000002686739719592878827825188636779785e-01,-3.054188626448366139509715821986901573836803436279e-02,-2.060588792937146848660567854949476895853877067566e-02,1.000000000000000020816681711721685132943093776703e-02
5.000000000000002220446049250313080847263336181641e-01,-3.055506297914991481468049983050150331109762191772e-02,-2.062026256204490398671325124269060324877500534058e-02,1.000000000000000020816681711721685132943093776703e-02
5.100000000000002309263891220325604081153869628906e-01,-3.056832676364392223367083545326750027015805244446e-02,-2.063471945786375313924843055701785488054156303406e-02,1.000000000000000020816681711721685132943093776703e-02
5.200000000000002398081733190338127315044403076172e-01,-3.058167776324220016315180714627786073833703994751e-02,-2.064925873260734304204255806780565762892365455627e-02,1.000000000000000020816681711721685132943093776703e-02
5.300000000000002486899575160350650548934936523438e-01,-3.059511612373664798947281440177903277799487113953e-02,-2.066388050245122204318093395158939529210329055786e-02,1.000000000000000020816681711721685132943093776703e-02
5.400000000000002575717417130363173782825469970703e-01,-3.060864199143515165801865407502191374078392982483e-02,-2.067858488396686136856494897529046284034848213196e-02,1.000000000000000020816681711721685132943093776703e-02
5.500000000000002664535259100375697016716003417969e-01,-3.062225551316218388753220835951651679351925849915e-02,-2.069337199412133940223945671732508344575762748718e-02,1.000000000000000020816681711721685132943093776703e-02
5.600000000000002753353101070388220250606536865234e-01,-3.063595683625940785388408471590082626789808273315e-02,-2.070824195027701902782624188148474786430597305298e-02,1.000000000000000020816681711721685132943093776703e-02
5.700000000000002842170943040400743484497070312500e-01,-3.064974610858624617937273626466776477172970771790e-02,-2.072319487019120762272272884274570969864726066589e-02,1.000000000000000020816681711721685132943093776703e-02
5.800000000000002930988785010413266718387603759766e-01,-3.066362347852047420815324585419148206710815429688e-02,-2.073823087201580664395983433223591418936848640442e-02,1.000000000000000020816681711721685132943093776703e-02
5.900000000000003019806626980425789952278137207031e-01,-3.067758909495877858719659059261175571009516716003e-02,-2.075335007429695080571896426135936053469777107239e-02,1.000000000000000020816681711721685132943093776703e-02
6.000000000000003108624468950438313186168670654297e-01,-3.069164310731732625558976224056095816195011138916e-02,-2.076855259597463337906120273146370891481637954712e-02,1.000000000000000020816681711721685132943093776703e-02
6.100000000000003197442310920450836420059204101562e-01,-3.070578566553231955604807978943426860496401786804e-02,-2.078383855638231414442174127543694339692592620850e-02,1.000000000000000020816681711721685132943093776703e-02
6.200000000000003286260152890463359653949737548828e-01,-3.072001692006054093808664617881731828674674034119e-02,-2.079920807524652387465735614568984601646661758423e-02,1.000000000000000020816681711721685132943093776703e-02
6.300000000000003375077994860475882887840270996094e-01,-3.073433702187989419174485306029964704066514968872e-02,-2.081466127268644106251826997322496026754379272461e-02,1.000000000000000020816681711721685132943093776703e-02
6.400000000000003463895836830488406121730804443359e-01,-3.074874612248993527297002970044559333473443984985e-02,-2.083019826921347558701391733393393224105238914490e-02,1.000000000000000020816681711721685132943093776703e-02
6.500000000000003552713678800500929355621337890625e-01,-3.076324437391239965955413993015099549666047096252e-02,-2.084581918573082462420309468598134117200970649719e-02,1.000000000000000020816681711721685132943093776703e-02
6.600000000000003641531520770513452589511871337891e-01,-3.077783192869171582928267127954313764348626136780e-02,-2.086152414353301121074935053911758586764335632324e-02,1.000000000000000020816681711721685132943093776703e-02
6.700000000000003730349362740525975823402404785156e-01,-3.079250893989551526863657215926650678738951683044e-02,-2.087731326430542627692332757760595995932817459106e-02,1.000000000000000020816681711721685132943093776703e-02
6.800000000000003819167204710538499057292938232422e-01,-3.080727556111512860370638122731179464608430862427e-02,-2.089318667012384986292339306146459421142935752869e-02,1.000000000000000020816681711721685132943093776703e-02
6.900000000000003907985046680551022291183471679688e-01,-3.082213194646608520055330870945908827707171440125e-02,-2.090914448345395151851455750602326588705182075500e-02,1.000000000000000020816681711721685132943093776703e-02
7.000000000000003996802888650563545525074005126953e-01,-3.083707825058858847944165404442173894494771957397e-02,-2.092518682715078723322044140786601928994059562683e-02,1.000000000000000020816681711721685132943093776703e-02
7.100000000000004085620730620576068758964538574219e-01,-3.085211462864800510685903134344698628410696983337e-02,-2.094131382445827208038657829547446453943848609924e-02,1.000000000000000020816681711721685132943093776703e-02
7.200000000000004174438572590588591992855072021484e-01,-3.086724123633532296251402726738888304680585861206e-02,-2.095752559900865980013762168709945399314165115356e-02,1.000000000000000020816681711721685132943093776703e-02
7.300000000000004263256414560601115226745605468750e-01,-3.088245822986761257578081085739540867507457733154e-02,-2.097382227482197727952417665164830395951867103577e-02,1.000000000000000020816681711721685132943093776703e-02
7.400000000000004352074256530613638460636138916016e-01,-3.089776576598848162324983945836720522493124008179e-02,-2.099020397630547984935134309125714935362339019775e-02,1.000000000000000020816681711721685132943093776703e-02
7.500000000000004440892098500626161694526672363281e-01,-3.091316400196851901793770878157374681904911994934e-02,-2.100667082825306147819688362687884364277124404907e-02,1.000000000000000020816681711721685132943093776703e-02
7.600000000000004529709940470638684928417205810547e-01,-3.092865309560573205960309906004113145172595977783e-02,-2.102322295584467537477024734471342526376247406006e-02,1.000000000000000020816681711721685132943093776703e-02
7.700000000000004618527782440651208162307739257812e-01,-3.094423320522596623782796143586892867460846900940e-02,-2.103986048464572683469597791372507344931364059448e-02,1.000000000000000020816681711721685132943093776703e-02
7.800000000000004707345624410663731396198272705078e-01,-3.095990448968333197399260825477540493011474609375e-02,-2.105658354060644874006236193508811993524432182312e-02,1.000000000000000020816681711721685132943093776703e-02
7.900000000000004796163466380676254630088806152344e-01,-3.097566710836061054656909163895761594176292419434e-02,-2.107339225006128052841702924524724949151277542114e-02,1.000000000000000020816681711721685132943093776703e-02
8.000000000000004884981308350688777863979339599609e-01,-3.099152122116965654696763010633731028065085411072e-02,-2.109028673972821593673998563645000103861093521118e-02,1.000000000000000020816681711721685132943093776703e-02
8.100000000000004973799150320701301097869873046875e-01,-3.100746698855178992704217932896426646038889884949e-02,-2.110726713670814033707578971643670229241251945496e-02,1.000000000000000020816681711721685132943093776703e-02
8.200000000000005062616992290713824331760406494141e-01,-3.102350457147818804659600289141963003203272819519e-02,-2.112433356848416113327182586090202676132321357727e-02,1.000000000000000020816681711721685132943093776703e-02
8.300000000000005151434834260726347565650939941406e-01,-3.103963413145025690420553132753411773592233657837e-02,-2.114148616292091040214096153704304015263915061951e-02,1.000000000000000020816681711721685132943093776703e-02
8.400000000000005240252676230738870799541473388672e-01,-3.105585583049999195970336529626365518197417259216e-02,-2.115872504826385100407115658072143560275435447693e-02,1.000000000000000020816681711721685132943093776703e-02
8.500000000000005329070518200751394033432006835938e-01,-3.107216983119034936500213461840758100152015686035e-02,-2.117605035313854452971860098386969184502959251404e-02,1.000000000000000020816681711721685132943093776703e-02
8.600000000000005417888360170763917267322540283203e-01,-3.108857629661558943934274168441334040835499763489e-02,-2.119346220654992618559475658912560902535915374756e-02,1.000000000000000020816681711721685132943093776703e-02
8.700000000000005506706202140776440501213073730469e-01,-3.110507539040161667509565290856698993593454360962e-02,-2.121096073788155192407778315555333392694592475891e-02,1.000000000000000020816681711721685132943093776703e-02
8.800000000000005595524044110788963735103607177734e-01,-3.112166727670631627411523822956951335072517395020e-02,-2.122854607689483863453006051713600754737854003906e-02,1.000000000000000020816681711721685132943093776703e-02
8.900000000000005684341886080801486968994140625000e-01,-3.113835212021987680630630279665638227015733718872e-02,-2.124621835372828004828704706596909090876579284668e-02,1.000000000000000020816681711721685132943093776703e-02
