time,u0,u1,tau
0.000000000000000000000000000000000000000000000000e+00,-7.000000000000000666133814775093924254179000854492e-02,-1.000000000000000888178419700125232338905334472656e-02,1.000000000000000020816681711721685132943093776703e-02
1.000000000000000020816681711721685132943093776703e-02,-7.000601881894362443770063464398845098912715911865e-02,-1.001401841760781764867349608039148733951151371002e-02,1.000000000000000020816681711721685132943093776703e-02
2.000000000000000041633363423443370265886187553406e-02,-7.001208407914499831647958671965170651674270629883e-02,-1.002807249722859755935999714893114287406206130981e-02,1.000000000000000020816681711721685132943093776703e-02
2.999999999999999888977697537484345957636833190918e-02,-7.001819591147417920495854559703730046749114990234e-02,-1.004216233133397792598451303547335555776953697205e-02,1.000000000000000020816681711721685132943093776703e-02
4.000000000000000083266726846886740531772375106812e-02,-7.002435444705011613475420517715974710881710052490e-02,-1.005628801250604831274415573716396465897560119629e-02,1.000000000000000020816681711721685132943093776703e-02
5.000000000000000277555756156289135105907917022705e-02,-7.003055981724096157314818356098840013146400451660e-02,-1.007044963343712608294655552754193195141851902008e-02,1.000000000000000020816681711721685132943093776703e-02
6.000000000000000471844785465691529680043458938599e-02,-7.003681215366434897884317933858255855739116668701e-02,-1.008464728692951527244670018035321845673024654388e-02,1.000000000000000020816681711721685132943093776703e-02
7.000000000000000666133814775093924254179000854492e-02,-7.004311158818767035771912787822657264769077301025e-02,-1.009888106589525852418987028613628353923559188843e-02,1.000000000000000020816681711721685132943093776703e-02
8.000000000000000166533453693773481063544750213623e-02,-7.004945825292839545195278105893521569669246673584e-02,-1.011315106335588555330762261519339517690241336823e-02,1.000000000000000020816681711721685132943093776703e-02
8.999999999999999666933092612453037872910499572754e-02,-7.005585228025430766241044011621852405369281768799e-02,-1.012745737244215120387291761971937376074492931366e-02,1.000000000000000020816681711721685132943093776703e-02
9.999999999999999167332731531132594682276248931885e-02,-7.006229380278382323776753537458716891705989837646e-02,-1.014180008639377177093177095912324148230254650116e-02,1.000000000000000020816681711721685132943093776703e-02
1.099999999999999866773237044981215149164199829102e-01,-7.006878295338622719690135909331729635596275329590e-02,-1.015617929855914917947057318770021083764731884003e-02,1.000000000000000020816681711721685132943093776703e-02
1.199999999999999816813200936849170830100774765015e-01,-7.007531986518196476243502957004238851368427276611e-02,-1.017059510239508995921298151188238989561796188354e-02,1.000000000000000020816681711721685132943093776703e-02
1.299999999999999766853164828717126511037349700928e-01,-7.008190467154289116091803180097485892474651336670e-02,-1.018504759146651901524638361706820433028042316437e-02,1.000000000000000020816681711721685132943093776703e-02
1.399999999999999855671006798729649744927883148193e-01,-7.008853750609252142300675814112764783203601837158e-02,-1.019953685944618645975445758722344180569052696228e-02,1.000000000000000020816681711721685132943093776703e-02
1.499999999999999944488848768742172978818416595459e-01,-7.009521850270630793922066459344932809472084045410e-02,-1.021406300011436403540887596363972988910973072052e-02,1.000000000000000020816681711721685132943093776703e-02
1.600000000000000033306690738754696212708950042725e-01,-7.010194779551189026012281146904570050537586212158e-02,-1.022862610735853980403753382688591955229640007019e-02,1.000000000000000020816681711721685132943093776703e-02
1.700000000000000122124532708767219446599483489990e-01,-7.010872551888931714092478841848787851631641387939e-02,-1.024322627517309722278149308749561896547675132751e-02,1.000000000000000020816681711721685132943093776703e-02
1.800000000000000210942374678779742680490016937256e-01,-7.011555180747129634166725509203388355672359466553e-02,-1.025786359765899942442235470707601052708923816681e-02,1.000000000000000020816681711721685132943093776703e-02
1.900000000000000299760216648792265914380550384521e-01,-7.012242679614343054961267398539348505437374114990e-02,-1.027253816902345441575139517453862936235964298248e-02,1.000000000000000020816681711721685132943093776703e-02
2.000000000000000388578058618804789148271083831787e-01,-7.012935062004446717942585109994979575276374816895e-02,-1.028725008357958201066217895913723623380064964294e-02,1.000000000000000020816681711721685132943093776703e-02
2.100000000000000477395900588817312382161617279053e-01,-7.013632341456650653999105315961060114204883575439e-02,-1.030199943574606688545536314904893515631556510925e-02,1.000000000000000020816681711721685132943093776703e-02
2.200000000000000566213742558829835616052150726318e-01,-7.014334531535522387901693264211644418537616729736e-02,-1.031678632004680816469655013634110218845307826996e-02,1.000000000000000020816681711721685132943093776703e-02
2.300000000000000655031584528842358849942684173584e-01,-7.015041645831010530542926062480546534061431884766e-02,-1.033161083111056206818023639470993657596409320831e-02,1.000000000000000020816681711721685132943093776703e-02
2.400000000000000743849426498854882083833217620850e-01,-7.015753697958462820061242837255122140049934387207e-02,-1.034647306367057068010595344276225659996271133423e-02,1.000000000000000020816681711721685132943093776703e-02
2.500000000000000555111512312578270211815834045410e-01,-7.016470701558649714080218018352752551436424255371e-02,-1.036137311256419592242483673771857866086065769196e-02,1.000000000000000020816681711721685132943093776703e-02
2.600000000000000643929354282590793445706367492676e-01,-7.017192670297785206390273060605977661907672882080e-02,-1.037631107273253271150448284743106341920793056488e-02,1.000000000000000020816681711721685132943093776703e-02
2.700000000000000732747196252603316679596900939941e-01,-7.017919617867543480294045821210602298378944396973e-02,-1.039128703922002211479380662240146193653345108032e-02,1.000000000000000020816681711721685132943093776703e-02
2.800000000000000821565038222615839913487434387207e-01,-7.018651557985082500845663844302180223166942596436e-02,-1.040630110717405409914704250695649534463882446289e-02,1.000000000000000020816681711721685132943093776703e-02
2.900000000000000910382880192628363147377967834473e-01,-7.019388504393057892638552175412769429385662078857e-02,-1.042135337184456507497731792000195127911865711212e-02,1.000000000000000020816681711721685132943093776703e-02
3.000000000000000999200722162640886381268501281738e-01,-7.020130470859647919823487427493091672658920288086e-02,-1.043644392858362329734589479812711942940950393677e-02,1.000000000000000020816681711721685132943093776703e-02
3.100000000000001088018564132653409615159034729004e-01,-7.020877471178564588338844032477936707437038421631e-02,-1.045157287284501600177488711551632150076329708099e-02,1.000000000000000020816681711721685132943093776703e-02
3.200000000000001176836406102665932849049568176270e-01,-7.021629519169074462592305962971295230090618133545e-02,-1.046674030018381572337826668217530823312699794769e-02,1.000000000000000020816681711721685132943093776703e-02
3.300000000000001265654248072678456082940101623535e-01,-7.022386628676018094363797672485816292464733123779e-02,-1.048194630625594661599286894215765642002224922180e-02,1.000000000000000020816681711721685132943093776703e-02
3.400000000000001354472090042690979316830635070801e-01,-7.023148813569819737256949565562536008656024932861e-02,-1.049719098681774209769201888775569386780261993408e-02,1.000000000000000020816681711721685132943093776703e-02
3.500000000000001443289932012703502550721168518066e-01,-7.023916087746509551159590500901686027646064758301e-02,-1.051247443772549555740525306646304670721292495728e-02,1.000000000000000020816681711721685132943093776703e-02
3.600000000000001532107773982716025784611701965332e-01,-7.024688465127734704473994042928097769618034362793e-02,-1.052779675493500065319718572709462023340165615082e-02,1.000000000000000020816681711721685132943093776703e-02
3.700000000000001620925615952728549018502235412598e-01,-7.025465959660778803019809402030659839510917663574e-02,-1.054315803450108293692899508187110768631100654602e-02,1.000000000000000020816681711721685132943093776703e-02
3.800000000000001709743457922741072252392768859863e-01,-7.026248585318570216706746123236371204257011413574e-02,-1.055855837257712800947295761488931020721793174744e-02,1.000000000000000020816681711721685132943093776703e-02
3.900000000000001798561299892753595486283302307129e-01,-7.027036356099700120658724245004123076796531677246e-02,-1.057399786541459232869222262252151267603039741516e-02,1.000000000000000020816681711721685132943093776703e-02
4.000000000000001887379141862766118720173835754395e-01,-7.027829286028436373001682113681454211473464965820e-02,-1.058947660936251922159101468423614278435707092285e-02,1.000000000000000020816681711721685132943093776703e-02
4.100000000000001976196983832778641954064369201660e-01,-7.028627389154731841536261072178604081273078918457e-02,-1.060499470086703581450660038854039157740771770477e-02,1.000000000000000020816681711721685132943093776703e-02
4.200000000000002065014825802791165187954902648926e-01,-7.029430679554241057083174837316619232296943664551e-02,-1.062055223647084475913082712850155076012015342712e-02,1.000000000000000020816681711721685132943093776703e-02
4.300000000000002153832667772803688421845436096191e-01,-7.030239171328328540155894188501406461000442504883e-02,-1.063614931281270901963775799003997235558927059174e-02,1.000000000000000020816681711721685132943093776703e-02
4.400000000000002242650509742816211655735969543457e-01,-7.031052878604082678748454782180488109588623046875e-02,-1.065178602662692625147045077937946189194917678833e-02,1.000000000000000020816681711721685132943093776703e-02
4.500000000000002331468351712828734889626502990723e-01,-7.031871815534325442786922621962730772793292999268e-02,-1.066746247474279624123383314326929394155740737915e-02,1.000000000000000020816681711721685132943093776703e-02
4.600000000000002420286193682841258123517036437988e-01,-7.032695996297619323023297965846722945570945739746e-02,-1.068317875408408140769367378197785001248121261597e-02,1.000000000000000020816681711721685132943093776703e-02
4.700000000000002509104035652853781357407569885254e-01,-7.033525435098281208823323140677530318498611450195e-02,-1.069893496166845515971122182463659555651247501373e-02,1.000000000000000020816681711721685132943093776703e-02
4.800000000000002597921877622866304591298103332520e-01,-7.034360146166387939281605667929397895932197570801e-02,-1.071473119460693984583699034374149050563573837280e-02,1.000000000000000020816681711721685132943093776703e-02
4.900000000000002686739719592878827825188636779785e-01,-7.035200143757786017673083733825478702783584594727e-02,-1.073056755010334643862801584646149422042071819305e-02,1.000000000000000020816681711721685132943093776703e-02
5.000000000000002220446049250313080847263336181641e-01,-7.036045442154099938125710878011886961758136749268e-02,-1.074644412545369166755993006745484308339655399323e-02,1.000000000000000020816681711721685132943093776703e-02
5.100000000000002309263891220325604081153869628906e-01,-7.036896055662737736735579119340400211513042449951e-02,-1.076236101804561862138598371529951691627502441406e-02,1.000000000000000020816681711721685132943093776703e-02
5.200000000000002398081733190338127315044403076172e-01,-7.037751998616897930460822863096836954355239868164e-02,-1.077831832535779826853783447404566686600446701050e-02,1.000000000000000020816681711721685132943093776703e-02
5.300000000000002486899575160350650548934936523438e-01,-7.038613285375576456015522808229434303939342498779e-02,-1.079431614495932924280285902796094887889921665192e-02,1.000000000000000020816681711721685132943093776703e-02
5.400000000000002575717417130363173782825469970703e-01,-7.039479930323569445427267510240199044346809387207e-02,-1.081035457450912895538408520224038511514663696289e-02,1.000000000000000020816681711721685132943093776703e-02
5.500000000000002664535259100375697016716003417969e-01,-7.040351947871481552709838069858960807323455810547e-02,-1.082643371175531082917231628925947006791830062866e-02,1.000000000000000020816681711721685132943093776703e-02
5.600000000000002753353101070388220250606536865234e-01,-7.041229352455727341641988914489047601819038391113e-02,-1.084255365453455112467739951398471021093428134918e-02,1.000000000000000020816681711721685132943093776703e-02
5.700000000000002842170943040400743484497070312500e-01,-7.042112158538535449103790142544312402606010437012e-02,-1.085871450077145750068297047619125805795192718506e-02,1.000000000000000020816681711721685132943093776703e-02
5.800000000000002930988785010413266718387603759766e-01,-7.043000380607952748412969867786159738898277282715e-02,-1.087491634847791675821948587099541327916085720062e-02,1.000000000000000020816681711721685132943093776703e-02
5.900000000000003019806626980425789952278137207031e-01,-7.043894033177844349324914219323545694351196289062e-02,-1.089115929575243911509030425577293499372899532318e-02,1.000000000000000020816681711721685132943093776703e-02
6.000000000000003108624468950438313186168670654297e-01,-7.044793130787896373590228904504328966140747070312e-02,-1.090744344077949207205691095623478759080171585083e-02,1.000000000000000020816681711721685132943093776703e-02
6.100000000000003197442310920450836420059204101562e-01,-7.045697688003617342733519990360946394503116607666e-02,-1.092376888182882560540676308846741449087858200073e-02,1.000000000000000020816681711721685132943093776703e-02
6.200000000000003286260152890463359653949737548828e-01,-7.046607719416338178053393903610412962734699249268e-02,-1.094013571725478695118027872013044543564319610596e-02,1.000000000000000020816681711721685132943093776703e-02
6.300000000000003375077994860475882887840270996094e-01,-7.047523239643213588401238212099997326731681823730e-02,-1.095654404549562671578044614761893171817064285278e-02,1.000000000000000020816681711721685132943093776703e-02
6.400000000000003463895836830488406121730804443359e-01,-7.048444263327217906844879280470195226371288299561e-02,-1.097299396507279457824157731238301494158804416656e-02,1.000000000000000020816681711721685132943093776703e-02
6.500000000000003552713678800500929355621337890625e-01,-7.049370805137145090668582270154729485511779785156e-02,-1.098948557459022631888068133321212371811270713806e-02,1.000000000000000020816681711721685132943093776703e-02
6.600000000000003641531520770513452589511871337891e-01,-7.050302879767608721373051139380550011992454528809e-02,-1.100601897273362217433145815448369830846786499023e-02,1.000000000000000020816681711721685132943093776703e-02
6.700000000000003730349362740525975823402404785156e-01,-7.051240501939035065781524735939456149935722351074e-02,-1.102259425826971304951396035676225437782704830170e-02,1.000000000000000020816681711721685132943093776703e-02
6.800000000000003819167204710538499057292938232422e-01,-7.052183686397663076039776797188096679747104644775e-02,-1.103921153004551979071035106017006910406053066254e-02,1.000000000000000020816681711721685132943093776703e-02
6.900000000000003907985046680551022291183471679688e-01,-7.053132447915540226279773605710943229496479034424e-02,-1.105587088698760031557632999010820640251040458679e-02,1.000000000000000020816681711721685132943093776703e-02
7.000000000000003996802888650563545525074005126953e-01,-7.054086801290512798168208519200561568140983581543e-02,-1.107257242810128806953517965894207009114325046539e-02,1.000000000000000020816681711721685132943093776703e-02
7.100000000000004085620730620576068758964538574219e-01,-7.055046761346228656464063533348962664604187011719e-02,-1.108931625246992180855443166365148499608039855957e-02,1.000000000000000020816681711721685132943093776703e-02
7.200000000000004174438572590588591992855072021484e-01,-7.056012342932123371230801467390847392380237579346e-02,-1.110610245925406323885820114583111717365682125092e-02,1.000000000000000020816681711721685132943093776703e-02
7.300000000000004263256414560601115226745605468750e-01,-7.056983560923417442278804401212255470454692840576e-02,-1.112293114769070424829866539084832766093313694000e-02,1.000000000000000020816681711721685132943093776703e-02
7.400000000000004352074256530613638460636138916016e-01,-7.057960430221106584713908205230836756527423858643e-02,-1.113980241709246893355711449657974299043416976929e-02,1.000000000000000020816681711721685132943093776703e-02
7.500000000000004440892098500626161694526672363281e-01,-7.058942965751957565601060196058824658393859863281e-02,-1.115671636684680001483371825088397599756717681885e-02,1.000000000000000020816681711721685132943093776703e-02
7.600000000000004529709940470638684928417205810547e-01,-7.059931182468494326176511322046280838549137115479e-02,-1.117367309641513657691991312503887456841766834259e-02,1.000000000000000020816681711721685132943093776703e-02
7.700000000000004618527782440651208162307739257812e-01,-7.060925095348992430732693037498393096029758453369e-02,-1.119067270533208487137688535995039273984730243683e-02,1.000000000000000020816681711721685132943093776703e-02
7.800000000000004707345624410663731396198272705078e-01,-7.061924719397465188830409488218720071017742156982e-02,-1.120771529320457350620277026109761209227144718170e-02,1.000000000000000020816681711721685132943093776703e-02
7.900000000000004796163466380676254630088806152344e-01,-7.062930069643653940847372041389462538063526153564e-02,-1.122480095971100169660594758624938549473881721497e-02,1.000000000000000020816681711721685132943093776703e-02
8.000000000000004884981308350688777863979339599609e-01,-7.063941161143018343526733815451734699308872222900e-02,-1.124192980460037710743748107233841437846422195435e-02,1.000000000000000020816681711721685132943093776703e-02
8.100000000000004973799150320701301097869873046875e-01,-7.064958008976722492189281865648808889091014862061e-02,-1.125910192769144502200617807829985395073890686035e-02,1.000000000000000020816681711721685132943093776703e-02
8.200000000000005062616992290713824331760406494141e-01,-7.065980628251619655166848588123684749007225036621e-02,-1.127631742887180016365888945983897428959608078003e-02,1.000000000000000020816681711721685132943093776703e-02
8.300000000000005151434834260726347565650939941406e-01,-7.067009034100242559350846249799360521137714385986e-02,-1.129357640809699504791385749058463261462748050690e-02,1.000000000000000020816681711721685132943093776703e-02
8.400000000000005240252676230738870799541473388672e-01,-7.068043241680783961289336048139375634491443634033e-02,-1.131087896538963272208277999197889585047960281372e-02,1.000000000000000020816681711721685132943093776703e-02
8.500000000000005329070518200751394033432006835938e-01,-7.069083266177085544956781859582406468689441680908e-02,-1.132822520083845777016939848635956877842545509338e-02,1.000000000000000020816681711721685132943093776703e-02
8.600000000000005417888360170763917267322540283203e-01,-7.070129122798619880629900080748484469950199127197e-02,-1.134561521459742129691594669793630600906908512115e-02,1.000000000000000020816681711721685132943093776703e-02
8.700000000000005506706202140776440501213073730469e-01,-7.071180826780472383763509469645214267075061798096e-02,-1.136304910688474938129655100738091277889907360077e-02,1.000000000000000020816681711721685132943093776703e-02
8.800000000000005595524044110788963735103607177734e-01,-7.072238393383326049423942549765342846512794494629e-02,-1.138052697798199418277587113834670162759721279144e-02,1.000000000000000020816681711721685132943093776703e-02
8.900000000000005684341886080801486968994140625000e-01,-7.073301837893442023386114669847302138805389404297e-02,-1.139804892823307463922688498314528260380029678345e-02,1.000000000000000020816681711721685132943093776703e-02
