time,u0,u1,tau
0.000000000000000000000000000000000000000000000000e+00,-2.000000000000001776356839400250464677810668945312e-02,-4.000000000000000777156117237609578296542167663574e-02,1.000000000000000020816681711721685132943093776703e-02
1.000000000000000020816681711721685132943093776703e-02,-2.001927563409625077106568369345040991902351379395e-02,-4.000647474784849166873357262375066056847572326660e-02,1.000000000000000020816681711721685132943093776703e-02
2.000000000000000041633363423443370265886187553406e-02,-2.003870648103217230739936383088206639513373374939e-02,-4.001310467460341552259350805798021610826253890991e-02,1.000000000000000020816681711721685132943093776703e-02
2.999999999999999888977697537484345957636833190918e-02,-2.005829269576545753617224931986129377037286758423e-02,-4.001988986149939558911725612233567517250776290894e-02,1.000000000000000020816681711721685132943093776703e-02
4.000000000000000083266726846886740531772375106812e-02,-2.007803443420025021892705296977510442957282066345e-02,-4.002683039052945535019034650758840143680572509766e-02,1.000000000000000020816681711721685132943093776703e-02
5.000000000000000277555756156289135105907917022705e-02,-2.009793185318954622520237762728356756269931793213e-02,-4.003392634444471326338188532645290251821279525757e-02,1.000000000000000020816681711721685132943093776703e-02
6.000000000000000471844785465691529680043458938599e-02,-2.011798511053755275646004463396820938214659690857e-02,-4.004117780675398724499203240156930405646562576294e-02,1.000000000000000020816681711721685132943093776703e-02
7.000000000000000666133814775093924254179000854492e-02,-2.013819436500205450890632619120879098773002624512e-02,-4.004858486172341303088728636794257909059524536133e-02,1.000000000000000020816681711721685132943093776703e-02
8.000000000000000166533453693773481063544750213623e-02,-2.015855977629674861129061014253238681703805923462e-02,-4.005614759437604172065405805369664449244737625122e-02,1.000000000000000020816681711721685132943093776703e-02
8.999999999999999666933092612453037872910499572754e-02,-2.017908150509358650159796866319084074348211288452e-02,-4.006386609049138181060101260300143621861934661865e-02,1.000000000000000020816681711721685132943093776703e-02
9.999999999999999167332731531132594682276248931885e-02,-2.019975971302509151761306327443890040740370750427e-02,-4.007174043660496204344312332068511750549077987671e-02,1.000000000000000020816681711721685132943093776703e-02
1.099999999999999866773237044981215149164199829102e-01,-2.022059456268667995693100181142654037103056907654e-02,-4.007977072000783180794059035179088823497295379639e-02,1.000000000000000020816681711721685132943093776703e-02
1.199999999999999816813200936849170830100774765015e-01,-2.024158621763895438139257976217777468264102935791e-02,-4.008795702874608235521947108281892724335193634033e-02,1.000000000000000020816681711721685132943093776703e-02
1.299999999999999766853164828717126511037349700928e-01,-2.026273484240999345207256965295528061687946319580e-02,-4.009629945162029168725936756345618050545454025269e-02,1.000000000000000020816681711721685132943093776703e-02
1.399999999999999855671006798729649744927883148193e-01,-2.028404060249763829482105848001083359122276306152e-02,-4.010479807818500413985063346444803755730390548706e-02,1.000000000000000020816681711721685132943093776703e-02
1.499999999999999944488848768742172978818416595459e-01,-2.030550366437175111022916951242223149165511131287e-02,-4.011345299874814751550644587041460908949375152588e-02,1.000000000000000020816681711721685132943093776703e-02
1.600000000000000033306690738754696212708950042725e-01,-2.032712419547647725304173604854440782219171524048e-02,-4.012226430437042939969316535098187159746885299683e-02,1.000000000000000020816681711721685132943093776703e-02
1.700000000000000122124532708767219446599483489990e-01,-2.034890236423249343378216735800378955900669097900e-02,-4.013123208686473347706069603191281203180551528931e-02,1.000000000000000020816681711721685132943093776703e-02
1.800000000000000210942374678779742680490016937256e-01,-2.037083834003924204258950680923589970916509628296e-02,-4.014035643879546727541551831563992891460657119751e-02,1.000000000000000020816681711721685132943093776703e-02
1.900000000000000299760216648792265914380550384521e-01,-2.039293229327714812582073022895201575011014938354e-02,-4.014963745347790990969372160179773345589637756348e-02,1.000000000000000020816681711721685132943093776703e-02
2.000000000000000388578058618804789148271083831787e-01,-2.041518439530983983209999621522001689299941062927e-02,-4.015907522497751819257061356438498478382825851440e-02,1.000000000000000020816681711721685132943093776703e-02
2.100000000000000477395900588817312382161617279053e-01,-2.043759481848634804168618472886009840294718742371e-02,-4.016866984810921192838861770724179223179817199707e-02,1.000000000000000020816681711721685132943093776703e-02
2.200000000000000566213742558829835616052150726318e-01,-2.046016373614329558749957982399791944772005081177e-02,-4.017842141843664532929736310506996233016252517700e-02,1.000000000000000020816681711721685132943093776703e-02
2.300000000000000655031584528842358849942684173584e-01,-2.048289132260708300670160042500356212258338928223e-02,-4.018833003227143679803035070108307991176843643188e-02,1.000000000000000020816681711721685132943093776703e-02
2.400000000000000743849426498854882083833217620850e-01,-2.050577775319605000614586742813116870820522308350e-02,-4.019839578667239871068161960465658921748399734497e-02,1.000000000000000020816681711721685132943093776703e-02
2.500000000000000555111512312578270211815834045410e-01,-2.052882320422263692782927080315857892856001853943e-02,-4.020861877944471862722508603837923146784305572510e-02,1.000000000000000020816681711721685132943093776703e-02
2.600000000000000643929354282590793445706367492676e-01,-2.055202785299553233655522888057021191343665122986e-02,-4.021899910913914050203388228510448243468999862671e-02,1.000000000000000020816681711721685132943093776703e-02
2.700000000000000732747196252603316679596900939941e-01,-2.057539187782181019925609177789738168939948081970e-02,-4.022953687505109038324846437717496883124113082886e-02,1.000000000000000020816681711721685132943093776703e-02
2.800000000000000821565038222615839913487434387207e-01,-2.059891545800904971708078505798766855150461196899e-02,-4.024023217721981598993252760010363999754190444946e-02,1.000000000000000020816681711721685132943093776703e-02
2.900000000000000910382880192628363147377967834473e-01,-2.062259877386745515748245338727429043501615524292e-02,-4.025108511642745690028988292397116310894489288330e-02,1.000000000000000020816681711721685132943093776703e-02
3.000000000000000999200722162640886381268501281738e-01,-2.064644200671195486962439247236034134402871131897e-02,-4.026209579419814249545694906373682897537946701050e-02,1.000000000000000020816681711721685132943093776703e-02
3.100000000000001088018564132653409615159034729004e-01,-2.067044533886429683033902904298884095624089241028e-02,-4.027326431279701357546230156003730371594429016113e-02,1.000000000000000020816681711721685132943093776703e-02
3.200000000000001176836406102665932849049568176270e-01,-2.069460895365512684285214106694184010848402976990e-02,-4.028459077522925091408012576721375808119773864746e-02,1.000000000000000020816681711721685132943093776703e-02
3.300000000000001265654248072678456082940101623535e-01,-2.071893303542605632716622210409695981070399284363e-02,-4.029607528523906911921415030519710853695869445801e-02,1.000000000000000020816681711721685132943093776703e-02
3.400000000000001354472090042690979316830635070801e-01,-2.074341776953173011044384566048393025994300842285e-02,-4.030771794730868273770596488247974775731563568115e-02,1.000000000000000020816681711721685132943093776703e-02
3.500000000000001443289932012703502550721168518066e-01,-2.076806334234186646181541391342761926352977752686e-02,-4.031951886665725154346162639740214217454195022583e-02,1.000000000000000020816681711721685132943093776703e-02
3.600000000000001532107773982716025784611701965332e-01,-2.079286994124329365773995448307687183842062950134e-02,-4.033147814923979807000264941052591893821954727173e-02,1.000000000000000020816681711721685132943093776703e-02
3.700000000000001620925615952728549018502235412598e-01,-2.081783775464198307791896525031916098669171333313e-02,-4.034359590174609044854747708086506463587284088135e-02,1.000000000000000020816681711721685132943093776703e-02
3.800000000000001709743457922741072252392768859863e-01,-2.084296697196505801508159549939591670408844947815e-02,-4.035587223159952524609295210211712401360273361206e-02,1.000000000000000020816681711721685132943093776703e-02
3.900000000000001798561299892753595486283302307129e-01,-2.086825778366279554587592315328947734087705612183e-02,-4.036830724695594785345065247383899986743927001953e-02,1.000000000000000020816681711721685132943093776703e-02
4.000000000000001887379141862766118720173835754395e-01,-2.089371038121063187120718396272422978654503822327e-02,-4.038090105670247981217713117985113058239221572876e-02,1.000000000000000020816681711721685132943093776703e-02
4.100000000000001976196983832778641954064369201660e-01,-2.091932495711112602321257725179748376831412315369e-02,-4.039365377045629756924682851604302413761615753174e-02,1.000000000000000020816681711721685132943093776703e-02
4.200000000000002065014825802791165187954902648926e-01,-2.094510170489594785836473533890966791659593582153e-02,-4.040656549856339735393717660372203681617975234985e-02,1.000000000000000020816681711721685132943093776703e-02
4.300000000000002153832667772803688421845436096191e-01,-2.097104081912782788665872146793844876810908317566e-02,-4.041963635209731842135028045959188602864742279053e-02,1.000000000000000020816681711721685132943093776703e-02
4.400000000000002242650509742816211655735969543457e-01,-2.099714249540250363135207578579866094514727592468e-02,-4.043286644285785935704069515850278548896312713623e-02,1.000000000000000020816681711721685132943093776703e-02
4.500000000000002331468351712828734889626502990723e-01,-2.102340693035066598870486132000223733484745025635e-02,-4.044625588336975274827977955283131450414657592773e-02,1.000000000000000020816681711721685132943093776703e-02
4.600000000000002420286193682841258123517036437988e-01,-2.104983432163988130159104628091881750151515007019e-02,-4.045980478688131903863833827017515432089567184448e-02,1.000000000000000020816681711721685132943093776703e-02
4.700000000000002509104035652853781357407569885254e-01,-2.107642486797650649421598245680797845125198364258e-02,-4.047351326736308568809974417490593623369932174683e-02,1.000000000000000020816681711721685132943093776703e-02
4.800000000000002597921877622866304591298103332520e-01,-2.110317876910759379849302774800889892503619194031e-02,-4.048738143950639245538525301526533439755439758301e-02,1.000000000000000020816681711721685132943093776703e-02
4.900000000000002686739719592878827825188636779785e-01,-2.113009622582277813318540893305907957255840301514e-02,-4.050140941872195504691589462709089275449514389038e-02,1.000000000000000020816681711721685132943093776703e-02
5.000000000000002220446049250313080847263336181641e-01,-2.115717743995617489138894029565562959760427474976e-02,-4.051559732113840794909265241585671901702880859375e-02,1.000000000000000020816681711721685132943093776703e-02
5.100000000000002309263891220325604081153869628906e-01,-2.118442261438822915575741490101790986955165863037e-02,-4.052994526360081256610712330257229041308164596558e-02,1.000000000000000020816681711721685132943093776703e-02
5.200000000000002398081733190338127315044403076172e-01,-2.121183195304759613875056345477787544950842857361e-02,-4.054445336366914454107046594799612648785114288330e-02,1.000000000000000020816681711721685132943093776703e-02
5.300000000000002486899575160350650548934936523438e-01,-2.123940566091296958117773385765758575871586799622e-02,-4.055912173961676026046063725516432896256446838379e-02,1.000000000000000020816681711721685132943093776703e-02
5.400000000000002575717417130363173782825469970703e-01,-2.126714394401494137576413834267441416159272193909e-02,-4.057395051042880784741839761409210041165351867676e-02,1.000000000000000020816681711721685132943093776703e-02
5.500000000000002664535259100375697016716003417969e-01,-2.129504700943780567956586935451923636719584465027e-02,-4.058893979580063815504331614647526293992996215820e-02,1.000000000000000020816681711721685132943093776703e-02
5.600000000000002753353101070388220250606536865234e-01,-2.132311506532138731251357910423394059762358665466e-02,-4.060408971613617412632635250702151097357273101807e-02,1.000000000000000020816681711721685132943093776703e-02
5.700000000000002842170943040400743484497070312500e-01,-2.135134832086283893093359154136123834177851676941e-02,-4.061940039254625239850682305586815346032381057739e-02,1.000000000000000020816681711721685132943093776703e-02
5.800000000000002930988785010413266718387603759766e-01,-2.137974698631843820106901432609447510913014411926e-02,-4.063487194684692327406594358762959018349647521973e-02,1.000000000000000020816681711721685132943093776703e-02
5.900000000000003019806626980425789952278137207031e-01,-2.140831127300536415591913907974230824038386344910e-02,-4.065050450155775069172037206044478807598352432251e-02,1.000000000000000020816681711721685132943093776703e-02
6.000000000000003108624468950438313186168670654297e-01,-2.143704139330347008263188968157919589430093765259e-02,-4.066629817990005668626452006719773635268211364746e-02,1.000000000000000020816681711721685132943093776703e-02
6.100000000000003197442310920450836420059204101562e-01,-2.146593756065703906266151079762494191527366638184e-02,-4.068225310579513809283724867782439105212688446045e-02,1.000000000000000020816681711721685132943093776703e-02
6.200000000000003286260152890463359653949737548828e-01,-2.149499998957653604247930445581005187705159187317e-02,-4.069836940386247631229466037439124193042516708374e-02,1.000000000000000020816681711721685132943093776703e-02
6.300000000000003375077994860475882887840270996094e-01,-2.152422889564033214870875099222757853567600250244e-02,-4.071464719941788462653775582111848052591085433960e-02,1.000000000000000020816681711721685132943093776703e-02
6.400000000000003463895836830488406121730804443359e-01,-2.155362449549643941160148585822753375396132469177e-02,-4.073108661847164857494618672717479057610034942627e-02,1.000000000000000020816681711721685132943093776703e-02
6.500000000000003552713678800500929355621337890625e-01,-2.158318700686422467183156470582616748288273811340e-02,-4.074768778772663163634248917333025019615888595581e-02,1.000000000000000020816681711721685132943093776703e-02
6.600000000000003641531520770513452589511871337891e-01,-2.161291664853609920116106479781592497602105140686e-02,-4.076445083457633927759289349523896817117929458618e-02,1.000000000000000020816681711721685132943093776703e-02
6.700000000000003730349362740525975823402404785156e-01,-2.164281364037921873144654227871797047555446624756e-02,-4.078137588710296218552642244503658730536699295044e-02,1.000000000000000020816681711721685132943093776703e-02
6.800000000000003819167204710538499057292938232422e-01,-2.167287820333715919751682577043538913130760192871e-02,-4.079846307407538480438446981679589953273534774780e-02,1.000000000000000020816681711721685132943093776703e-02
6.900000000000003907985046680551022291183471679688e-01,-2.170311055943157860226300215344963362440466880798e-02,-4.081571252494717305658866735029732808470726013184e-02,1.000000000000000020816681711721685132943093776703e-02
7.000000000000003996802888650563545525074005126953e-01,-2.173351093176388235117535430163115961477160453796e-02,-4.083312436985450655235752037697238847613334655762e-02,1.000000000000000020816681711721685132943093776703e-02
7.100000000000004085620730620576068758964538574219e-01,-2.176407954451685736185773123452236177399754524231e-02,-4.085069873961410386042913955861877184361219406128e-02,1.000000000000000020816681711721685132943093776703e-02
7.200000000000004174438572590588591992855072021484e-01,-2.179481662295630964298887022323469864204525947571e-02,-4.086843576572110614542054918274516239762306213379e-02,1.000000000000000020816681711721685132943093776703e-02
7.300000000000004263256414560601115226745605468750e-01,-2.182572239343267758715505522104649571701884269714e-02,-4.088633558034692611071747592177416663616895675659e-02,1.000000000000000020816681711721685132943093776703e-02
7.400000000000004352074256530613638460636138916016e-01,-2.185679708338265220257667920122912619262933731079e-02,-4.090439831633706224689461805610335431993007659912e-02,1.000000000000000020816681711721685132943093776703e-02
7.500000000000004440892098500626161694526672363281e-01,-2.188804092133076265036528695873130345717072486877e-02,-4.092262410720889920234810688270954415202140808105e-02,1.000000000000000020816681711721685132943093776703e-02
7.600000000000004529709940470638684928417205810547e-01,-2.191945413689096872067452181909175124019384384155e-02,-4.094101308714944570388283295869769062846899032593e-02,1.000000000000000020816681711721685132943093776703e-02
7.700000000000004618527782440651208162307739257812e-01,-2.195103696076823249216936062566674081608653068542e-02,-4.095956539101306553840586843762139324098825454712e-02,1.000000000000000020816681711721685132943093776703e-02
7.800000000000004707345624410663731396198272705078e-01,-2.198278962476007958315449286601506173610687255859e-02,-4.097828115431916690125646596243313979357481002808e-02,1.000000000000000020816681711721685132943093776703e-02
7.900000000000004796163466380676254630088806152344e-01,-2.201471236175814999436184393744042608886957168579e-02,-4.099716051324986398896044192952103912830352783203e-02,1.000000000000000020816681711721685132943093776703e-02
8.000000000000004884981308350688777863979339599609e-01,-2.204680540574973854339724255169130628928542137146e-02,-4.101620360464757614193942458769015502184629440308e-02,1.000000000000000020816681711721685132943093776703e-02
8.100000000000004973799150320701301097869873046875e-01,-2.207906899181931101305842446436145110055804252625e-02,-4.103541056601263392611400604437221772968769073486e-02,1.000000000000000020816681711721685132943093776703e-02
8.200000000000005062616992290713824331760406494141e-01,-2.211150335615003070799389206513296812772750854492e-02,-4.105478153550083664224956692123669199645519256592e-02,1.000000000000000020816681711721685132943093776703e-02
8.300000000000005151434834260726347565650939941406e-01,-2.214410873602525725578615833910589572042226791382e-02,-4.107431665192096126304477365920320153236389160156e-02,1.000000000000000020816681711721685132943093776703e-02
8.400000000000005240252676230738870799541473388672e-01,-2.217688536983003153024718301367101958021521568298e-02,-4.109401605473225055353836410176882054656744003296e-02,1.000000000000000020816681711721685132943093776703e-02
8.500000000000005329070518200751394033432006835938e-01,-2.220983349705256404416076065899687819182872772217e-02,-4.111387988404188037483422135665023233741521835327e-02,1.000000000000000020816681711721685132943093776703e-02
8.600000000000005417888360170763917267322540283203e-01,-2.224295335828569211700234120598906883969902992249e-02,-4.113390828060234372109960077068535611033439636230e-02,1.000000000000000020816681711721685132943093776703e-02
8.700000000000005506706202140776440501213073730469e-01,-2.227624519522834051210580241786374244838953018188e-02,-4.115410138580886945103287644087686203420162200928e-02,1.000000000000000020816681711721685132943093776703e-02
8.800000000000005595524044110788963735103607177734e-01,-2.230970925068695778770155868642177665606141090393e-02,-4.117445934169675081371053693146677687764167785645e-02,1.000000000000000020816681711721685132943093776703e-02
8.900000000000005684341886080801486968994140625000e-01,-2.234334576857694917850771787470876006409525871277e-02,-4.119498229093865315775246926932595670223236083984e-02,1.000000000000000020816681711721685132943093776703e-02
