time,u0,u1,tau
0.000000000000000000000000000000000000000000000000e+00,-1.600000000000000033306690738754696212708950042725e-01,1.999999999999999000799277837359113618731498718262e-02,1.000000000000000020816681711721685132943093776703e-02
1.000000000000000020816681711721685132943093776703e-02,-1.599711644302047319765591737450449727475643157959e-01,2.010245026479425684007296126765140797942876815796e-02,1.000000000000000020816681711721685132943093776703e-02
2.000000000000000041633363423443370265886187553406e-02,-1.599421099187024464249873290100367739796638488770e-01,2.020492515886098891519928599791455781087279319763e-02,1.000000000000000020816681711721685132943093776703e-02
2.999999999999999888977697537484345957636833190918e-02,-1.599128357419545565232255057708243839442729949951e-01,2.030742502525050355299818249932286562398076057434e-02,1.000000000000000020816681711721685132943093776703e-02
4.000000000000000083266726846886740531772375106812e-02,-1.598833411768540435637930841039633378386497497559e-01,2.040995020559373610002928955964307533577084541321e-02,1.000000000000000020816681711721685132943093776703e-02
5.000000000000000277555756156289135105907917022705e-02,-1.598536255007345363576831687169033102691173553467e-01,2.051250104010711450275294964740169234573841094971e-02,1.000000000000000020816681711721685132943093776703e-02
6.000000000000000471844785465691529680043458938599e-02,-1.598236879913794983298913621183601208031177520752e-01,2.061507786759743388049770373982028104364871978760e-02,1.000000000000000020816681711721685132943093776703e-02
7.000000000000000666133814775093924254179000854492e-02,-1.597935279270313035926420752730336971580982208252e-01,2.071768102546677967068511350134940585121512413025e-02,1.000000000000000020816681711721685132943093776703e-02
8.000000000000000166533453693773481063544750213623e-02,-1.597631445864003407741904538852395489811897277832e-01,2.082031084971747159073629518388770520687103271484e-02,1.000000000000000020816681711721685132943093776703e-02
8.999999999999999666933092612453037872910499572754e-02,-1.597325372486742001143511515692807734012603759766e-01,2.092296767495704923334187697037123143672943115234e-02,1.000000000000000020816681711721685132943093776703e-02
9.999999999999999167332731531132594682276248931885e-02,-1.597017051935267772933002561330795288085937500000e-01,2.102565183440327153951976413281954592093825340271e-02,1.000000000000000020816681711721685132943093776703e-02
1.099999999999999866773237044981215149164199829102e-01,-1.596706477011275160382552940063760615885257720947e-01,2.112836365988916484393023154098045779392123222351e-02,1.000000000000000020816681711721685132943093776703e-02
1.199999999999999816813200936849170830100774765015e-01,-1.596393640521504286855503096376196481287479400635e-01,2.123110348186808479797882398543151794001460075378e-02,1.000000000000000020816681711721685132943093776703e-02
1.299999999999999766853164828717126511037349700928e-01,-1.596078535277833665428914855510811321437358856201e-01,2.133387162941882686517658385128015652298927307129e-02,1.000000000000000020816681711721685132943093776703e-02
1.399999999999999855671006798729649744927883148193e-01,-1.595761154097371792293102998883114196360111236572e-01,2.143666843025074722484113465270638698711991310120e-02,1.000000000000000020816681711721685132943093776703e-02
1.499999999999999944488848768742172978818416595459e-01,-1.595441489802548462595410683206864632666110992432e-01,2.153949421070892877860813996448996476829051971436e-02,1.000000000000000020816681711721685132943093776703e-02
1.600000000000000033306690738754696212708950042725e-01,-1.595119535221206918951253328486927784979343414307e-01,2.164234929577937838196532993606524541974067687988e-02,1.000000000000000020816681711721685132943093776703e-02
1.700000000000000122124532708767219446599483489990e-01,-1.594795283186695999955162506012129597365856170654e-01,2.174523400909424836191519148087536450475454330444e-02,1.000000000000000020816681711721685132943093776703e-02
1.800000000000000210942374678779742680490016937256e-01,-1.594468726537961178468805201191571541130542755127e-01,2.184814867293708579021327409463992808014154434204e-02,1.000000000000000020816681711721685132943093776703e-02
1.900000000000000299760216648792265914380550384521e-01,-1.594139858119637820355052326704026199877262115479e-01,2.195109360824812685941687107060715788975358009338e-02,1.000000000000000020816681711721685132943093776703e-02
2.000000000000000388578058618804789148271083831787e-01,-1.593808670782142500321754141623387113213539123535e-01,2.205406913462961207561541243649116950109601020813e-02,1.000000000000000020816681711721685132943093776703e-02
2.100000000000000477395900588817312382161617279053e-01,-1.593475157381764872877027983122388832271099090576e-01,2.215707557035113267618342547393694985657930374146e-02,1.000000000000000020816681711721685132943093776703e-02
2.200000000000000566213742558829835616052150726318e-01,-1.593139310780760098396058310754597187042236328125e-01,2.226011323235500827255606282051303423941135406494e-02,1.000000000000000020816681711721685132943093776703e-02
2.300000000000000655031584528842358849942684173584e-01,-1.592801123847441269187896750736399553716182708740e-01,2.236318243626170265692110206146026030182838439941e-02,1.000000000000000020816681711721685132943093776703e-02
2.400000000000000743849426498854882083833217620850e-01,-1.592460589456271002894993671361589804291725158691e-01,2.246628349637525695614570508951146621257066726685e-02,1.000000000000000020816681711721685132943093776703e-02
2.500000000000000555111512312578270211815834045410e-01,-1.592117700487954146115754383572493679821491241455e-01,2.256941672568877829685440872253820998594164848328e-02,1.000000000000000020816681711721685132943093776703e-02
2.600000000000000643929354282590793445706367492676e-01,-1.591772449829530200471339185241959057748317718506e-01,2.267258243588992500106016336758329998701810836792e-02,1.000000000000000020816681711721685132943093776703e-02
2.700000000000000732747196252603316679596900939941e-01,-1.591424830374464916005194936587940901517868041992e-01,2.277578093736646117073441075717710191383957862854e-02,1.000000000000000020816681711721685132943093776703e-02
2.800000000000000821565038222615839913487434387207e-01,-1.591074835022743272361367417033761739730834960938e-01,2.287901253921180780293020973203965695574879646301e-02,1.000000000000000020816681711721685132943093776703e-02
2.900000000000000910382880192628363147377967834473e-01,-1.590722456680961349739789056911831721663475036621e-01,2.298227754923065635495049718883819878101348876953e-02,1.000000000000000020816681711721685132943093776703e-02
3.000000000000000999200722162640886381268501281738e-01,-1.590367688262419032518835138034773990511894226074e-01,2.308557627394458577896330098155885934829711914062e-02,1.000000000000000020816681711721685132943093776703e-02
3.100000000000001088018564132653409615159034729004e-01,-1.590010522687212435322123837977414950728416442871e-01,2.318890901859773506776818408070539589971303939819e-02,1.000000000000000020816681711721685132943093776703e-02
3.200000000000001176836406102665932849049568176270e-01,-1.589650952882326051529560118069639429450035095215e-01,2.329227608716248967835049654695467324927449226379e-02,1.000000000000000020816681711721685132943093776703e-02
3.300000000000001265654248072678456082940101623535e-01,-1.589288971781724901788379611389245837926864624023e-01,2.339567778234521305824600290179660078138113021851e-02,1.000000000000000020816681711721685132943093776703e-02
3.400000000000001354472090042690979316830635070801e-01,-1.588924572326447792747217135911341756582260131836e-01,2.349911440559199204969331731263082474470138549805e-02,1.000000000000000020816681711721685132943093776703e-02
3.500000000000001443289932012703502550721168518066e-01,-1.588557747464698632899882113633793778717517852783e-01,2.360258625709443780493757003569044172763824462891e-02,1.000000000000000020816681711721685132943093776703e-02
3.600000000000001532107773982716025784611701965332e-01,-1.588188490151939968875183240015758201479911804199e-01,2.370609363579550057932188167342246742919087409973e-02,1.000000000000000020816681711721685132943093776703e-02
3.700000000000001620925615952728549018502235412598e-01,-1.587816793350984301280703903103130869567394256592e-01,2.380963683939531574940140501439600484445691108704e-02,1.000000000000000020816681711721685132943093776703e-02
3.800000000000001709743457922741072252392768859863e-01,-1.587442650032087620992626852967077866196632385254e-01,2.391321616435709840331469422380905598402023315430e-02,1.000000000000000020816681711721685132943093776703e-02
3.900000000000001798561299892753595486283302307129e-01,-1.587066053173041280111021933407755568623542785645e-01,2.401683190591304833949592989483790006488561630249e-02,1.000000000000000020816681711721685132943093776703e-02
4.000000000000001887379141862766118720173835754395e-01,-1.586686995759263862915133813658030703663825988770e-01,2.412048435807029669875056754335673758760094642639e-02,1.000000000000000020816681711721685132943093776703e-02
4.100000000000001976196983832778641954064369201660e-01,-1.586305470783894167041694345243740826845169067383e-01,2.422417381361689422969440954602760029956698417664e-02,1.000000000000000020816681711721685132943093776703e-02
4.200000000000002065014825802791165187954902648926e-01,-1.585921471247883629551722606265684589743614196777e-01,2.432790056412780996253353293923282762989401817322e-02,1.000000000000000020816681711721685132943093776703e-02
4.300000000000002153832667772803688421845436096191e-01,-1.585534990160088752997324945681612007319927215576e-01,2.443166489997098192454849652222037548199295997620e-02,1.000000000000000020816681711721685132943093776703e-02
4.400000000000002242650509742816211655735969543457e-01,-1.585146020537362698821226558720809407532215118408e-01,2.453546711031337826391940382109169149771332740784e-02,1.000000000000000020816681711721685132943093776703e-02
4.500000000000002331468351712828734889626502990723e-01,-1.584754555404648268535083843744359910488128662109e-01,2.463930748312711735414914926423080032691359519958e-02,1.000000000000000020816681711721685132943093776703e-02
4.600000000000002420286193682841258123517036437988e-01,-1.584360587795070052230528290237998589873313903809e-01,2.474318630519559483738056826496176654472947120667e-02,1.000000000000000020816681711721685132943093776703e-02
4.700000000000002509104035652853781357407569885254e-01,-1.583964110750026577090210366804967634379863739014e-01,2.484710386211964883163005879396223463118076324463e-02,1.000000000000000020816681711721685132943093776703e-02
4.800000000000002597921877622866304591298103332520e-01,-1.583565117319282178343087252869736403226852416992e-01,2.495106043832377371027853030227561248466372489929e-02,1.000000000000000020816681711721685132943093776703e-02
4.900000000000002686739719592878827825188636779785e-01,-1.583163600561059980442735195538261905312538146973e-01,2.505505631706233735100930459793744375929236412048e-02,1.000000000000000020816681711721685132943093776703e-02
5.000000000000002220446049250313080847263336181641e-01,-1.582759553542133212911124928723438642919063568115e-01,2.515909178042585389589724798042880138382315635681e-02,1.000000000000000020816681711721685132943093776703e-02
5.100000000000002309263891220325604081153869628906e-01,-1.582352969337917636405421717427088879048824310303e-01,2.526316710934727385873266314320062519982457160950e-02,1.000000000000000020816681711721685132943093776703e-02
5.200000000000002398081733190338127315044403076172e-01,-1.581943841032563691229029245732817798852920532227e-01,2.536728258360831586570860451956832548603415489197e-02,1.000000000000000020816681711721685132943093776703e-02
5.300000000000002486899575160350650548934936523438e-01,-1.581532161719048090731121192220598459243774414062e-01,2.547143848184581574334295339667733060196042060852e-02,1.000000000000000020816681711721685132943093776703e-02
5.400000000000002575717417130363173782825469970703e-01,-1.581117924499265969817685117959626950323581695557e-01,2.557563508155812417865782038006727816537022590637e-02,1.000000000000000020816681711721685132943093776703e-02
5.500000000000002664535259100375697016716003417969e-01,-1.580701122484122478351054041922907344996929168701e-01,2.567987265911152866548761153353552799671888351440e-02,1.000000000000000020816681711721685132943093776703e-02
5.600000000000002753353101070388220250606536865234e-01,-1.580281748793625207216706485269241966307163238525e-01,2.578415148974669973691575819429999683052301406860e-02,1.000000000000000020816681711721685132943093776703e-02
5.700000000000002842170943040400743484497070312500e-01,-1.579859796556975226611285734179546125233173370361e-01,2.588847184758518230052182218514644773676991462708e-02,1.000000000000000020816681711721685132943093776703e-02
5.800000000000002930988785010413266718387603759766e-01,-1.579435258912658956997887571560568176209926605225e-01,2.599283400563590432086336079464672366157174110413e-02,1.000000000000000020816681711721685132943093776703e-02
5.900000000000003019806626980425789952278137207031e-01,-1.579008129008539762505591852459474466741085052490e-01,2.609723823580173060476816715436143567785620689392e-02,1.000000000000000020816681711721685132943093776703e-02
6.000000000000003108624468950438313186168670654297e-01,-1.578578400001949821884750235767569392919540405273e-01,2.620168480888603740330822233772778417915105819702e-02,1.000000000000000020816681711721685132943093776703e-02
6.100000000000003197442310920450836420059204101562e-01,-1.578146065059780889239249290767475031316280364990e-01,2.630617399459932517769011894870345713570713996887e-02,1.000000000000000020816681711721685132943093776703e-02
6.200000000000003286260152890463359653949737548828e-01,-1.577711117358575887426042072547716088593006134033e-01,2.641070606156585218182719643209566129371523857117e-02,1.000000000000000020816681711721685132943093776703e-02
6.300000000000003375077994860475882887840270996094e-01,-1.577273550084620501454679697417304851114749908447e-01,2.651528127733032008661595568810298573225736618042e-02,1.000000000000000020816681711721685132943093776703e-02
6.400000000000003463895836830488406121730804443359e-01,-1.576833356434033661663818293163785710930824279785e-01,2.661989990836456307365942564047145424410700798035e-02,1.000000000000000020816681711721685132943093776703e-02
6.500000000000003552713678800500929355621337890625e-01,-1.576390529612859137120750574467820115387439727783e-01,2.672456222007429590958871301609178772196173667908e-02,1.000000000000000020816681711721685132943093776703e-02
6.600000000000003641531520770513452589511871337891e-01,-1.575945062837156573909425105739501304924488067627e-01,2.682926847680586548983150407821085536852478981018e-02,1.000000000000000020816681711721685132943093776703e-02
6.700000000000003730349362740525975823402404785156e-01,-1.575496949333091978306953251376398839056491851807e-01,2.693401894185305789353179761747014708817005157471e-02,1.000000000000000020816681711721685132943093776703e-02
6.800000000000003819167204710538499057292938232422e-01,-1.575046182337028199960116126021603122353553771973e-01,2.703881387746391931625744575740100117400288581848e-02,1.000000000000000020816681711721685132943093776703e-02
6.900000000000003907985046680551022291183471679688e-01,-1.574592755095616802840652326267445459961891174316e-01,2.714365354484762557496502211051847552880644798279e-02,1.000000000000000020816681711721685132943093776703e-02
7.000000000000003996802888650563545525074005126953e-01,-1.574136660865886883087227943178731948137283325195e-01,2.724853820418135508241164188802940770983695983887e-02,1.000000000000000020816681711721685132943093776703e-02
7.100000000000004085620730620576068758964538574219e-01,-1.573677892915336939960724293996463529765605926514e-01,2.735346811461722427161191717459587380290031433105e-02,1.000000000000000020816681711721685132943093776703e-02
7.200000000000004174438572590588591992855072021484e-01,-1.573216444522024526353476403528475202620029449463e-01,2.745844353428922302029491220309864729642868041992e-02,1.000000000000000020816681711721685132943093776703e-02
7.300000000000004263256414560601115226745605468750e-01,-1.572752308974656176854267641829210333526134490967e-01,2.756346472032021252540623379445605678483843803406e-02,1.000000000000000020816681711721685132943093776703e-02
7.400000000000004352074256530613638460636138916016e-01,-1.572285479572678168480592830746900290250778198242e-01,2.766853192882891970816316984382865484803915023804e-02,1.000000000000000020816681711721685132943093776703e-02
7.500000000000004440892098500626161694526672363281e-01,-1.571815949626365616076384412735933437943458557129e-01,2.777364541493699406915496297187928576022386550903e-02,1.000000000000000020816681711721685132943093776703e-02
7.600000000000004529709940470638684928417205810547e-01,-1.571343712456912677932763244825764559209346771240e-01,2.787880543277606801289003612964734202250838279724e-02,1.000000000000000020816681711721685132943093776703e-02
7.700000000000004618527782440651208162307739257812e-01,-1.570868761396522483853033236300689168274402618408e-01,2.798401223549486921404749750763585325330495834351e-02,1.000000000000000020816681711721685132943093776703e-02
7.800000000000004707345624410663731396198272705078e-01,-1.570391089788495675438895204933942295610904693604e-01,2.808926607526634686151645325935533037409186363220e-02,1.000000000000000020816681711721685132943093776703e-02
7.900000000000004796163466380676254630088806152344e-01,-1.569910690987320889266953827245743013918399810791e-01,2.819456720329483606635179171462368685752153396606e-02,1.000000000000000020816681711721685132943093776703e-02
8.000000000000004884981308350688777863979339599609e-01,-1.569427558358763019619175338448258116841316223145e-01,2.829991586982324655585863126816548174247145652771e-02,1.000000000000000020816681711721685132943093776703e-02
8.100000000000004973799150320701301097869873046875e-01,-1.568941685279952868992126013836241327226161956787e-01,2.840531232414029647048714366519561735913157463074e-02,1.000000000000000020816681711721685132943093776703e-02
8.200000000000005062616992290713824331760406494141e-01,-1.568453065139475410827429868731996975839138031006e-01,2.851075681458774963017432924061722587794065475464e-02,1.000000000000000020816681711721685132943093776703e-02
8.300000000000005151434834260726347565650939941406e-01,-1.567961691337458884909494827297748997807502746582e-01,2.861624958856770484239007146243238821625709533691e-02,1.000000000000000020816681711721685132943093776703e-02
8.400000000000005240252676230738870799541473388672e-01,-1.567467557285663337651726578769739717245101928711e-01,2.872179089254991296575880710406636353582143783569e-02,1.000000000000000020816681711721685132943093776703e-02
8.500000000000005329070518200751394033432006835938e-01,-1.566970656407569162382742433692328631877899169922e-01,2.882738097207910438202205227753438521176576614380e-02,1.000000000000000020816681711721685132943093776703e-02
8.600000000000005417888360170763917267322540283203e-01,-1.566470982138464529409560554995550774037837982178e-01,2.893302007178236850970520777082128915935754776001e-02,1.000000000000000020816681711721685132943093776703e-02
8.700000000000005506706202140776440501213073730469e-01,-1.565968527925534203859569970518350601196289062500e-01,2.903870843537654372612522024610370863229036331177e-02,1.000000000000000020816681711721685132943093776703e-02
8.800000000000005595524044110788963735103607177734e-01,-1.565463287227946975743719804086140356957912445068e-01,2.914444630567565933110252274218510137870907783508e-02,1.000000000000000020816681711721685132943093776703e-02
8.900000000000005684341886080801486968994140625000e-01,-1.564955253516943367575464662877493537962436676025e-01,2.925023392459837751067297517693077679723501205444e-02,1.000000000000000020816681711721685132943093776703e-02
