time,u0,u1,tau
0.000000000000000000000000000000000000000000000000e+00,0.000000000000000000000000000000000000000000000000e+00,4.000000000000000777156117237609578296542167663574e-02,1.000000000000000020816681711721685132943093776703e-02
1.000000000000000020816681711721685132943093776703e-02,1.863500015657773705725873403249437387785292230546e-05,4.000007493588768336945094006296130828559398651123e-02,1.000000000000000020816681711721685132943093776703e-02
2.000000000000000041633363423443370265886187553406e-02,3.742004568955781360507090171907407238904852420092e-05,4.000030613358028508397268296903348527848720550537e-02,1.000000000000000020816681711721685132943093776703e-02
2.999999999999999888977697537484345957636833190918e-02,5.635523086992481309230942909671568941121222451329e-05,4.000069364466045385153591951166163198649883270264e-02,1.000000000000000020816681711721685132943093776703e-02
4.000000000000000083266726846886740531772375106812e-02,7.544065084855518146366576415218219153757672756910e-05,4.000123752153356831984254426970437634736299514771e-02,1.000000000000000020816681711721685132943093776703e-02
5.000000000000000277555756156289135105907917022705e-02,9.467640165839496580769962807977435659267939627171e-05,4.000193781742820975377838976783095858991146087646e-02,1.000000000000000020816681711721685132943093776703e-02
6.000000000000000471844785465691529680043458938599e-02,1.140625802166251321137502294789101142669096589088e-04,4.000279458639662694130478826082253362983465194702e-02,1.000000000000000020816681711721685132943093776703e-02
7.000000000000000666133814775093924254179000854492e-02,1.335992843268144316445228403367195824102964252234e-04,4.000380788331515252709280616727482993155717849731e-02,1.000000000000000020816681711721685132943093776703e-02
8.000000000000000166533453693773481063544750213623e-02,1.532866126810599480614905054665086936438456177711e-04,4.000497776388464016283919022498594131320714950562e-02,1.000000000000000020816681711721685132943093776703e-02
8.999999999999999666933092612453037872910499572754e-02,1.731246648621151830015757466796344488102477043867e-04,4.000630428463083920753717848128871992230415344238e-02,1.000000000000000020816681711721685132943093776703e-02
9.999999999999999167332731531132594682276248931885e-02,1.931135413455060121420275853765247120463754981756e-04,4.000778750290479718332292691229667980223894119263e-02,1.000000000000000020816681711721685132943093776703e-02
1.099999999999999866773237044981215149164199829102e-01,2.132533435016341729403149818367069201485719531775e-04,4.000942747688321365906460869155125692486763000488e-02,1.000000000000000020816681711721685132943093776703e-02
1.199999999999999816813200936849170830100774765015e-01,2.335441735978685550995798125839542080939281731844e-04,4.001122426556877331726980173698393628001213073730e-02,1.000000000000000020816681711721685132943093776703e-02
1.299999999999999766853164828717126511037349700928e-01,2.539861348006242666545950736889381005312316119671e-04,4.001317792879048595988678016510675661265850067139e-02,1.000000000000000020816681711721685132943093776703e-02
1.399999999999999855671006798729649744927883148193e-01,2.745793311774293943630653735965552186826243996620e-04,4.001528852720398488074238230183254927396774291992e-02,1.000000000000000020816681711721685132943093776703e-02
1.499999999999999944488848768742172978818416595459e-01,2.953238676989797836629214611292582048918120563030e-04,4.001755612229182523797987869329517707228660583496e-02,1.000000000000000020816681711721685132943093776703e-02
1.600000000000000033306690738754696212708950042725e-01,3.162198502411814587248484187398389622103422880173e-04,4.001998077636374079313341667329950723797082901001e-02,1.000000000000000020816681711721685132943093776703e-02
1.700000000000000122124532708767219446599483489990e-01,3.372673855871810349657535788026052614441141486168e-04,4.002256255255690065020246493077138438820838928223e-02,1.000000000000000020816681711721685132943093776703e-02
1.800000000000000210942374678779742680490016937256e-01,3.584665814293838529726310415668422137969173491001e-04,4.002530151483615211693845026275084819644689559937e-02,1.000000000000000020816681711721685132943093776703e-02
1.900000000000000299760216648792265914380550384521e-01,3.798175463714602404126374768367213619058020412922e-04,4.002819772799421499387406697678670752793550491333e-02,1.000000000000000020816681711721685132943093776703e-02
2.000000000000000388578058618804789148271083831787e-01,4.013203899303396850889447122767705877777189016342e-04,4.003125125765188974114039410778786987066268920898e-02,1.000000000000000020816681711721685132943093776703e-02
2.100000000000000477395900588817312382161617279053e-01,4.229752225381927023019346112420180361368693411350e-04,4.003446217025823788970839700596116017550230026245e-02,1.000000000000000020816681711721685132943093776703e-02
2.200000000000000566213742558829835616052150726318e-01,4.447821555444011012471483557106921580270864069462e-04,4.003783053309072775816090938860725145787000656128e-02,1.000000000000000020816681711721685132943093776703e-02
2.300000000000000655031584528842358849942684173584e-01,4.667413012175158915084693944663740694522857666016e-04,4.004135641425538016946461539191659539937973022461e-02,1.000000000000000020816681711721685132943093776703e-02
2.400000000000000743849426498854882083833217620850e-01,4.888527727472033717476262992818192287813872098923e-04,4.004503988268688641216641599385184235870838165283e-02,1.000000000000000020816681711721685132943093776703e-02
2.500000000000000555111512312578270211815834045410e-01,5.111166842461792921697982805540050321724265813828e-04,4.004888100814870538490808371534512843936681747437e-02,1.000000000000000020816681711721685132943093776703e-02
2.600000000000000643929354282590793445706367492676e-01,5.335331507521311449754319866656260273884981870651e-04,4.005287986123314686315310950703860726207494735718e-02,1.000000000000000020816681711721685132943093776703e-02
2.700000000000000732747196252603316679596900939941e-01,5.561022882296282575376178414217065437696874141693e-04,4.005703651336144088812574182156822644174098968506e-02,1.000000000000000020816681711721685132943093776703e-02
2.800000000000000821565038222615839913487434387207e-01,5.788242135720202304061121623135477420873939990997e-04,4.006135103678375858349269833524886053055524826050e-02,1.000000000000000020816681711721685132943093776703e-02
2.900000000000000910382880192628363147377967834473e-01,6.016990446033234490874619382339005824178457260132e-04,4.006582350457925378872658939144457690417766571045e-02,1.000000000000000020816681711721685132943093776703e-02
3.000000000000000999200722162640886381268501281738e-01,6.247269000800956696012322666433647100348025560379e-04,4.007045399065605612021201409334025811403989791870e-02,1.000000000000000020816681711721685132943093776703e-02
3.100000000000001088018564132653409615159034729004e-01,6.479078996932991114932054443897868623025715351105e-04,4.007524256975126403235165639671322423964738845825e-02,1.000000000000000020816681711721685132943093776703e-02
3.200000000000001176836406102665932849049568176270e-01,6.712421640701510825235964752266681898618116974831e-04,4.008018931743089624530895775933458935469388961792e-02,1.000000000000000020816681711721685132943093776703e-02
3.300000000000001265654248072678456082940101623535e-01,6.947298147759632192324574795350144995609298348427e-04,4.008529431008983623385688588314224034547805786133e-02,1.000000000000000020816681711721685132943093776703e-02
3.400000000000001354472090042690979316830635070801e-01,7.183709743159689097014020120468558161519467830658e-04,4.009055762495176977733279954918543808162212371826e-02,1.000000000000000020816681711721685132943093776703e-02
3.500000000000001443289932012703502550721168518066e-01,7.421657661371388985116492875704352627508342266083e-04,4.009597934006906699844208219474239740520715713501e-02,1.000000000000000020816681711721685132943093776703e-02
3.600000000000001532107773982716025784611701965332e-01,7.661143146299850738983883147170672600623220205307e-04,4.010155953432268521874348721212300006300210952759e-02,1.000000000000000020816681711721685132943093776703e-02
3.700000000000001620925615952728549018502235412598e-01,7.902167451303525455216791861801084451144561171532e-04,4.010729828742201630298325198964448645710945129395e-02,1.000000000000000020816681711721685132943093776703e-02
3.800000000000001709743457922741072252392768859863e-01,8.144731839212000128538915255660413095029070973396e-04,4.011319567990474094232311585983552504330873489380e-02,1.000000000000000020816681711721685132943093776703e-02
3.900000000000001798561299892753595486283302307129e-01,8.388837582343683157634628422272271563997492194176e-04,4.011925179313664824309881851149839349091053009033e-02,1.000000000000000020816681711721685132943093776703e-02
4.000000000000001887379141862766118720173835754395e-01,8.634485962523372757151940426467717770719900727272e-04,4.012546670931143449889688668008602689951658248901e-02,1.000000000000000020816681711721685132943093776703e-02
4.100000000000001976196983832778641954064369201660e-01,8.881678271099710444275165954763906484004110097885e-04,4.013184051145047420705580520916555542498826980591e-02,1.000000000000000020816681711721685132943093776703e-02
4.200000000000002065014825802791165187954902648926e-01,9.130415808962513094654278589246132469270378351212e-04,4.013837328340260496295499592633859720081090927124e-02,1.000000000000000020816681711721685132943093776703e-02
4.300000000000002153832667772803688421845436096191e-01,9.380699886559994409712670559997604868840426206589e-04,4.014506510984384990425866135410615243017673492432e-02,1.000000000000000020816681711721685132943093776703e-02
4.400000000000002242650509742816211655735969543457e-01,9.632531823915864953311594121032612747512757778168e-04,4.015191607627713321626572451350511983036994934082e-02,1.000000000000000020816681711721685132943093776703e-02
4.500000000000002331468351712828734889626502990723e-01,9.885912950646316178782146977255251840688288211823e-04,4.015892626903198869836586482051643542945384979248e-02,1.000000000000000020816681711721685132943093776703e-02
4.600000000000002420286193682841258123517036437988e-01,1.014084460597688844632480176244371250504627823830e-03,4.016609577526423363602603444633132312446832656860e-02,1.000000000000000020816681711721685132943093776703e-02
4.700000000000002509104035652853781357407569885254e-01,1.039732813875922411497865205376456287922337651253e-03,4.017342468295561491720135904870403464883565902710e-02,1.000000000000000020816681711721685132943093776703e-02
4.800000000000002597921877622866304591298103332520e-01,1.065536490748770137235168498079929122468456625938e-03,4.018091308091345514874603850330458953976631164551e-02,1.000000000000000020816681711721685132943093776703e-02
4.900000000000002686739719592878827825188636779785e-01,1.091495628031595530732511534210971149150282144547e-03,4.018856105877025713946082419170124921947717666626e-02,1.000000000000000020816681711721685132943093776703e-02
5.000000000000002220446049250313080847263336181641e-01,1.117610363507327755211440134530676004942506551743e-03,4.019636870698330144424659238211461342871189117432e-02,1.000000000000000020816681711721685132943093776703e-02
5.100000000000002309263891220325604081153869628906e-01,1.143880835928090533570866682566702365875244140625e-03,4.020433611683420921378839807402982842177152633667e-02,1.000000000000000020816681711721685132943093776703e-02
5.200000000000002398081733190338127315044403076172e-01,1.170307185016818910666680508825265860650688409805e-03,4.021246338042848422755781712112366221845149993896e-02,1.000000000000000020816681711721685132943093776703e-02
5.300000000000002486899575160350650548934936523438e-01,1.196889551468865173569633419958790909731760621071e-03,4.022075059069505492681528835419157985597848892212e-02,1.000000000000000020816681711721685132943093776703e-02
5.400000000000002575717417130363173782825469970703e-01,1.223628076953592195078024396082128077978268265724e-03,4.022919784138576787535512835347617510706186294556e-02,1.000000000000000020816681711721685132943093776703e-02
5.500000000000002664535259100375697016716003417969e-01,1.250522904115955718368224935943544551264494657516e-03,4.023780522707487428135664231376722455024719238281e-02,1.000000000000000020816681711721685132943093776703e-02
5.600000000000002753353101070388220250606536865234e-01,1.277574176578074932261741558647827332606539130211e-03,4.024657284315847488587181146613147575408220291138e-02,1.000000000000000020816681711721685132943093776703e-02
5.700000000000002842170943040400743484497070312500e-01,1.304782038940791770789684456133272760780528187752e-03,4.025550078585397179020688440687081310898065567017e-02,1.000000000000000020816681711721685132943093776703e-02
5.800000000000002930988785010413266718387603759766e-01,1.332146636785217852852469810898128343978896737099e-03,4.026458915219948558883444889033853542059659957886e-02,1.000000000000000020816681711721685132943093776703e-02
5.900000000000003019806626980425789952278137207031e-01,1.359668116674270796698231755783581320429220795631e-03,4.027383804005323780783598408561374526470899581909e-02,1.000000000000000020816681711721685132943093776703e-02
6.000000000000003108624468950438313186168670654297e-01,1.387346626154197957656033501905312732560560107231e-03,4.028324754809291252666270111149060539901256561279e-02,1.000000000000000020816681711721685132943093776703e-02
6.100000000000003197442310920450836420059204101562e-01,1.415182313756089540687788108641598228132352232933e-03,4.029281777581503187768419138592435047030448913574e-02,1.000000000000000020816681711721685132943093776703e-02
6.200000000000003286260152890463359653949737548828e-01,1.443175328997379136194978421769974374910816550255e-03,4.030254882353424134011632418150838930159807205200e-02,1.000000000000000020816681711721685132943093776703e-02
6.300000000000003375077994860475882887840270996094e-01,1.471325822383333196963217659458678099326789379120e-03,4.031244079238264360620647153155005071312189102173e-02,1.000000000000000020816681711721685132943093776703e-02
6.400000000000003463895836830488406121730804443359e-01,1.499633945408529239404216149011972447624430060387e-03,4.032249378430906305847969406386255286633968353271e-02,1.000000000000000020816681711721685132943093776703e-02
6.500000000000003552713678800500929355621337890625e-01,1.528099850558321684892981728864924662047997117043e-03,4.033270790207828943030321511287183966487646102905e-02,1.000000000000000020816681711721685132943093776703e-02
6.600000000000003641531520770513452589511871337891e-01,1.556723691310296642242860798432957381010055541992e-03,4.034308324927032840534479873895179480314254760742e-02,1.000000000000000020816681711721685132943093776703e-02
6.700000000000003730349362740525975823402404785156e-01,1.585505622135714547116247530311738955788314342499e-03,4.035361993027959670587989648993243463337421417236e-02,1.000000000000000020816681711721685132943093776703e-02
6.800000000000003819167204710538499057292938232422e-01,1.614445798500942176254002724533620494185015559196e-03,4.036431805031411024220489025537972338497638702393e-02,1.000000000000000020816681711721685132943093776703e-02
6.900000000000003907985046680551022291183471679688e-01,1.643544376868871868119237333871751616243273019791e-03,4.037517771539463062868691167750512249767780303955e-02,1.000000000000000020816681711721685132943093776703e-02
7.000000000000003996802888650563545525074005126953e-01,1.672801514700329684678936636998969333944842219353e-03,4.038619903235382557760146937653189525008201599121e-02,1.000000000000000020816681711721685132943093776703e-02
7.100000000000004085620730620576068758964538574219e-01,1.702217370455472297482990562400573253398761153221e-03,4.039738210883535990403103710377763491123914718628e-02,1.000000000000000020816681711721685132943093776703e-02
7.200000000000004174438572590588591992855072021484e-01,1.731792103595171513838457677536553092068061232567e-03,4.040872705329299346965754580196517053991556167603e-02,1.000000000000000020816681711721685132943093776703e-02
7.300000000000004263256414560601115226745605468750e-01,1.761525874582387744121669825858589319977909326553e-03,4.042023397498964443208535612939158454537391662598e-02,1.000000000000000020816681711721685132943093776703e-02
7.400000000000004352074256530613638460636138916016e-01,1.791418844883531109185570429076506115961819887161e-03,4.043190298399642473858861535518371965736150741577e-02,1.000000000000000020816681711721685132943093776703e-02
7.500000000000004440892098500626161694526672363281e-01,1.821471176969811922585762431481271050870418548584e-03,4.044373419119164786428299862564017530530691146851e-02,1.000000000000000020816681711721685132943093776703e-02
7.600000000000004529709940470638684928417205810547e-01,1.851683034318578379220920915315673482837155461311e-03,4.045572770825983655029745023057330399751663208008e-02,1.000000000000000020816681711721685132943093776703e-02
7.700000000000004618527782440651208162307739257812e-01,1.882054581414643618791915358201549679506570100784e-03,4.046788364769067503079469361182418651878833770752e-02,1.000000000000000020816681711721685132943093776703e-02
7.800000000000004707345624410663731396198272705078e-01,1.912585983751600429356165555816460255300626158714e-03,4.048020212277794738220393355732085183262825012207e-02,1.000000000000000020816681711721685132943093776703e-02
7.900000000000004796163466380676254630088806152344e-01,1.943277407833124024658100204021593526704236865044e-03,4.049268324761845505577184667345136404037475585938e-02,1.000000000000000020816681711721685132943093776703e-02
8.000000000000004884981308350688777863979339599609e-01,1.974129021174264413118759620147102396003901958466e-03,4.050532713711091359343186013575177639722824096680e-02,1.000000000000000020816681711721685132943093776703e-02
8.100000000000004973799150320701301097869873046875e-01,2.005140992302724672197156152719799138139933347702e-03,4.051813390695480077141610308899544179439544677734e-02,1.000000000000000020816681711721685132943093776703e-02
8.200000000000005062616992290713824331760406494141e-01,2.036313490760130549134254707155378127936273813248e-03,4.053110367364921862165516586173907853662967681885e-02,1.000000000000000020816681711721685132943093776703e-02
8.300000000000005151434834260726347565650939941406e-01,2.067646687103285967068710959892996470443904399872e-03,4.054423655449167912534491620135668199509382247925e-02,1.000000000000000020816681711721685132943093776703e-02
8.400000000000005240252676230738870799541473388672e-01,2.099140752905417472290450220384627755265682935715e-03,4.055753266757691072319502723075856920331716537476e-02,1.000000000000000020816681711721685132943093776703e-02
8.500000000000005329070518200751394033432006835938e-01,2.130795860757406755270348952535641728900372982025e-03,4.057099213179560931452627414728340227156877517700e-02,1.000000000000000020816681711721685132943093776703e-02
8.600000000000005417888360170763917267322540283203e-01,2.162612184269011895987322446899270289577543735504e-03,4.058461506683318231747392701436183415353298187256e-02,1.000000000000000020816681711721685132943093776703e-02
8.700000000000005506706202140776440501213073730469e-01,2.194589898070076899871949649423186201602220535278e-03,4.059840159316845109582772010980988852679729461670e-02,1.000000000000000020816681711721685132943093776703e-02
8.800000000000005595524044110788963735103607177734e-01,2.226729177811728223324028164142873720265924930573e-03,4.061235183207232563029620564520882908254861831665e-02,1.000000000000000020816681711721685132943093776703e-02
8.900000000000005684341886080801486968994140625000e-01,2.259030200167560890889273395032432745210826396942e-03,4.062646590560647225087720357805665116757154464722e-02,1.000000000000000020816681711721685132943093776703e-02
