time,u0,u1,tau
0.000000000000000000000000000000000000000000000000e+00,-5.000000000000001665334536937734810635447502136230e-02,-6.000000000000000471844785465691529680043458938599e-02,1.000000000000000020816681711721685132943093776703e-02
1.000000000000000020816681711721685132943093776703e-02,-5.003875719348538364528167221578769385814666748047e-02,-6.000791133598860210840442164226260501891374588013e-02,1.000000000000000020816681711721685132943093776703e-02
2.000000000000000041633363423443370265886187553406e-02,-5.007775614426963201042397599849209655076265335083e-02,-6.001604408890866271253372588034835644066333770752e-02,1.000000000000000020816681711721685132943093776703e-02
2.999999999999999888977697537484345957636833190918e-02,-5.011699718696240729576274475220998283475637435913e-02,-6.002439823348074826592224439991696272045373916626e-02,1.000000000000000020816681711721685132943093776703e-02
4.000000000000000083266726846886740531772375106812e-02,-5.015648065765840324381485970661742612719535827637e-02,-6.003297374496917998554224027429881971329450607300e-02,1.000000000000000020816681711721685132943093776703e-02
5.000000000000000277555756156289135105907917022705e-02,-5.019620689394182350140383164216473232954740524292e-02,-6.004177059917508579856004757857590448111295700073e-02,1.000000000000000020816681711721685132943093776703e-02
6.000000000000000471844785465691529680043458938599e-02,-5.023617623489078781728878198009624611586332321167e-02,-6.005078877242944063175045243951899465173482894897e-02,1.000000000000000020816681711721685132943093776703e-02
7.000000000000000666133814775093924254179000854492e-02,-5.027638902108175211758123168692691251635551452637e-02,-6.006002824158600955639641938432760071009397506714e-02,1.000000000000000020816681711721685132943093776703e-02
8.000000000000000166533453693773481063544750213623e-02,-5.031684559459389388669237064277695026248693466187e-02,-6.006948898401423542203758643154287710785865783691e-02,1.000000000000000020816681711721685132943093776703e-02
8.999999999999999666933092612453037872910499572754e-02,-5.035754629901345591491690356633625924587249755859e-02,-6.007917097759207097906752892413351219147443771362e-02,1.000000000000000020816681711721685132943093776703e-02
9.999999999999999167332731531132594682276248931885e-02,-5.039849147943809698491079984705720562487840652466e-02,-6.008907420069874855128588819752621930092573165894e-02,1.000000000000000020816681711721685132943093776703e-02
1.099999999999999866773237044981215149164199829102e-01,-5.043968148248118704701781211952038574963808059692e-02,-6.009919863220747338061755726812407374382019042969e-02,1.000000000000000020816681711721685132943093776703e-02
1.199999999999999816813200936849170830100774765015e-01,-5.048111665627610933348989874502876773476600646973e-02,-6.010954425147806839957453917122620623558759689331e-02,1.000000000000000020816681711721685132943093776703e-02
1.299999999999999766853164828717126511037349700928e-01,-5.052279735048052083934422284983156714588403701782e-02,-6.012011103834953573699095841220696456730365753174e-02,1.000000000000000020816681711721685132943093776703e-02
1.399999999999999855671006798729649744927883148193e-01,-5.056472391628060586432624745611974503844976425171e-02,-6.013089897313258352928855288155318703502416610718e-02,1.000000000000000020816681711721685132943093776703e-02
1.499999999999999944488848768742172978818416595459e-01,-5.060689670639528792150940716965124011039733886719e-02,-6.014190803660204170943970325424743350595235824585e-02,1.000000000000000020816681711721685132943093776703e-02
1.600000000000000033306690738754696212708950042725e-01,-5.064931607508042082921306814569106791168451309204e-02,-6.015313820998926391814265457469446118921041488647e-02,1.000000000000000020816681711721685132943093776703e-02
1.700000000000000122124532708767219446599483489990e-01,-5.069198237813298674181439196217979770153760910034e-02,-6.016458947497441145380037141876528039574623107910e-02,1.000000000000000020816681711721685132943093776703e-02
1.800000000000000210942374678779742680490016937256e-01,-5.073489597289521091383335260616149753332138061523e-02,-6.017626181367871640581768133415607735514640808105e-02,1.000000000000000020816681711721685132943093776703e-02
1.900000000000000299760216648792265914380550384521e-01,-5.077805721825873197516898471803870052099227905273e-02,-6.018815520865665458227766748677822761237621307373e-02,1.000000000000000020816681711721685132943093776703e-02
2.000000000000000388578058618804789148271083831787e-01,-5.082146647466866812292707322740170639008283615112e-02,-6.020026964288804210978511832763615529984235763550e-02,1.000000000000000020816681711721685132943093776703e-02
2.100000000000000477395900588817312382161617279053e-01,-5.086512410412772494661126643222814891487360000610e-02,-6.021260509977009039994655381633492652326822280884e-02,1.000000000000000020816681711721685132943093776703e-02
2.200000000000000566213742558829835616052150726318e-01,-5.090903047020024080326905391302716452628374099731e-02,-6.022516156310936397133559694339055567979812622070e-02,1.000000000000000020816681711721685132943093776703e-02
2.300000000000000655031584528842358849942684173584e-01,-5.095318593801622525374384053975518327206373214722e-02,-6.023793901711368969920101790194166824221611022949e-02,1.000000000000000020816681711721685132943093776703e-02
2.400000000000000743849426498854882083833217620850e-01,-5.099759087427536280445750094258983153849840164185e-02,-6.025093744638398973734183527994900941848754882812e-02,1.000000000000000020816681711721685132943093776703e-02
2.500000000000000555111512312578270211815834045410e-01,-5.104224564725102358808683788993221241980791091919e-02,-6.026415683590605892883118599456793162971735000610e-02,1.000000000000000020816681711721685132943093776703e-02
2.600000000000000643929354282590793445706367492676e-01,-5.108715062679419771640709768689703196287155151367e-02,-6.027759717104222425554382880363846197724342346191e-02,1.000000000000000020816681711721685132943093776703e-02
2.700000000000000732747196252603316679596900939941e-01,-5.113230618433745044981719729548785835504531860352e-02,-6.029125843752301122657755172440374735742807388306e-02,1.000000000000000020816681711721685132943093776703e-02
2.800000000000000821565038222615839913487434387207e-01,-5.117771269289884267239543191863049287348985671997e-02,-6.030514062143865067211478958597581367939710617065e-02,1.000000000000000020816681711721685132943093776703e-02
2.900000000000000910382880192628363147377967834473e-01,-5.122337052708582361137956695529283024370670318604e-02,-6.031924370923059941507204939625808037817478179932e-02,1.000000000000000020816681711721685132943093776703e-02
3.000000000000000999200722162640886381268501281738e-01,-5.126928006309908192328350651223445311188697814941e-02,-6.033356768768292216487125756430032197386026382446e-02,1.000000000000000020816681711721685132943093776703e-02
3.100000000000001088018564132653409615159034729004e-01,-5.131544167873642453558957754466973710805177688599e-02,-6.034811254391363871674158758651174139231443405151e-02,1.000000000000000020816681711721685132943093776703e-02
3.200000000000001176836406102665932849049568176270e-01,-5.136185575339656528282006320296204648911952972412e-02,-6.036287826536597400650663303167675621807575225830e-02,1.000000000000000020816681711721685132943093776703e-02
3.300000000000001265654248072678456082940101623535e-01,-5.140852266808294129818435180823144037276506423950e-02,-6.037786483979956653200815708260051906108856201172e-02,1.000000000000000020816681711721685132943093776703e-02
3.400000000000001354472090042690979316830635070801e-01,-5.145544280540748083296875847736373543739318847656e-02,-6.039307225528157269112128346932877320796251296997e-02,1.000000000000000020816681711721685132943093776703e-02
3.500000000000001443289932012703502550721168518066e-01,-5.150261654959435025924463502633443567901849746704e-02,-6.040850050017770173083064833008393179625272750854e-02,1.000000000000000020816681711721685132943093776703e-02
3.600000000000001532107773982716025784611701965332e-01,-5.155004428648369413368257596630428452044725418091e-02,-6.042414956314319518515532081437413580715656280518e-02,1.000000000000000020816681711721685132943093776703e-02
3.700000000000001620925615952728549018502235412598e-01,-5.159772640353531281132148933465941809117794036865e-02,-6.044001943311370916855906898490502499043941497803e-02,1.000000000000000020816681711721685132943093776703e-02
3.800000000000001709743457922741072252392768859863e-01,-5.164566328983235393712547534050827380269765853882e-02,-6.045611009929612728042158664720773231238126754761e-02,1.000000000000000020816681711721685132943093776703e-02
3.900000000000001798561299892753595486283302307129e-01,-5.169385533608496230417728156680823303759098052979e-02,-6.047242155115931105946458501421147957444190979004e-02,1.000000000000000020816681711721685132943093776703e-02
4.000000000000001887379141862766118720173835754395e-01,-5.174230293463390889519004645080713089555501937866e-02,-6.048895377842474635476932576239050831645727157593e-02,1.000000000000000020816681711721685132943093776703e-02
4.100000000000001976196983832778641954064369201660e-01,-5.179100647945418522954952322834287770092487335205e-02,-6.050570677105714806343073064454074483364820480347e-02,1.000000000000000020816681711721685132943093776703e-02
4.200000000000002065014825802791165187954902648926e-01,-5.183996636615859771035630387814308051019906997681e-02,-6.052268051925493996812122077244566753506660461426e-02,1.000000000000000020816681711721685132943093776703e-02
4.300000000000002153832667772803688421845436096191e-01,-5.188918299200130646031681180829764343798160552979e-02,-6.053987501344070681907894027062866371124982833862e-02,1.000000000000000020816681711721685132943093776703e-02
4.400000000000002242650509742816211655735969543457e-01,-5.193865675588135027984648672827461268752813339233e-02,-6.055729024425153539379351741445134393870830535889e-02,1.000000000000000020816681711721685132943093776703e-02
4.500000000000002331468351712828734889626502990723e-01,-5.198838805834617160517296952093602158129215240479e-02,-6.057492620252928616775278669592808000743389129639e-02,1.000000000000000020816681711721685132943093776703e-02
4.600000000000002420286193682841258123517036437988e-01,-5.203837730159507207750024804226995911449193954468e-02,-6.059278287931078171846266400280001107603311538696e-02,1.000000000000000020816681711721685132943093776703e-02
4.700000000000002509104035652853781357407569885254e-01,-5.208862488948268198996061073557939380407333374023e-02,-6.061086026581791880163407881809689570218324661255e-02,1.000000000000000020816681711721685132943093776703e-02
4.800000000000002597921877622866304591298103332520e-01,-5.213913122752238116230927289507235400378704071045e-02,-6.062915835344770409953696344018680974841117858887e-02,1.000000000000000020816681711721685132943093776703e-02
4.900000000000002686739719592878827825188636779785e-01,-5.218989672288969899893729120776697527617216110229e-02,-6.064767713376219282483958750162855722010135650635e-02,1.000000000000000020816681711721685132943093776703e-02
5.000000000000002220446049250313080847263336181641e-01,-5.224092178442569373020276657371141482144594192505e-02,-6.066641659847836487440275732296868227422237396240e-02,1.000000000000000020816681711721685132943093776703e-02
5.100000000000002309263891220325604081153869628906e-01,-5.229220682264031083708033520451863296329975128174e-02,-6.068537673945790383855936056534119416028261184692e-02,1.000000000000000020816681711721685132943093776703e-02
5.200000000000002398081733190338127315044403076172e-01,-5.234375224971569290355333237130253110080957412720e-02,-6.070455754869690662145487181078351568430662155151e-02,1.000000000000000020816681711721685132943093776703e-02
5.300000000000002486899575160350650548934936523438e-01,-5.239555847950950334679376396707084495574235916138e-02,-6.072395901831548897797929953412676695734262466431e-02,1.000000000000000020816681711721685132943093776703e-02
5.400000000000002575717417130363173782825469970703e-01,-5.244762592755817381950933508960588369518518447876e-02,-6.074358114054732860065399790983065031468868255615e-02,1.000000000000000020816681711721685132943093776703e-02
5.500000000000002664535259100375697016716003417969e-01,-5.249995501108016549007828643880202434957027435303e-02,-6.076342390772911800089772782484942581504583358765e-02,1.000000000000000020816681711721685132943093776703e-02
5.600000000000002753353101070388220250606536865234e-01,-5.255254614897919562821471117786131799221038818359e-02,-6.078348731228992024577806319030059967190027236938e-02,1.000000000000000020816681711721685132943093776703e-02
5.700000000000002842170943040400743484497070312500e-01,-5.260539976184742255727044835111883003264665603638e-02,-6.080377134674046224471766208807821385562419891357e-02,1.000000000000000020816681711721685132943093776703e-02
5.800000000000002930988785010413266718387603759766e-01,-5.265851627196862366764307239463960286229848861694e-02,-6.082427600366231007500417149458371568471193313599e-02,1.000000000000000020816681711721685132943093776703e-02
5.900000000000003019806626980425789952278137207031e-01,-5.271189610332132485792655529621697496622800827026e-02,-6.084500127569700267393670856108656153082847595215e-02,1.000000000000000020816681711721685132943093776703e-02
6.000000000000003108624468950438313186168670654297e-01,-5.276553968158192997606192875537090003490447998047e-02,-6.086594715553505369198816765674564521759748458862e-02,1.000000000000000020816681711721685132943093776703e-02
6.100000000000003197442310920450836420059204101562e-01,-5.281944743412780168823061899274762254208326339722e-02,-6.088711363590487701813458443211857229471206665039e-02,1.000000000000000020816681711721685132943093776703e-02
6.200000000000003286260152890463359653949737548828e-01,-5.287361979004032153106606983783422037959098815918e-02,-6.090850070956165679403326862484391313046216964722e-02,1.000000000000000020816681711721685132943093776703e-02
6.300000000000003375077994860475882887840270996094e-01,-5.292805718010793608607755800221639219671487808228e-02,-6.093010836927607865032285872075590305030345916748e-02,1.000000000000000020816681711721685132943093776703e-02
6.400000000000003463895836830488406121730804443359e-01,-5.298276003682914764292277709500922355800867080688e-02,-6.095193660782300543177214535717212129384279251099e-02,1.000000000000000020816681711721685132943093776703e-02
6.500000000000003552713678800500929355621337890625e-01,-5.303772879441550486268042163828795310109853744507e-02,-6.097398541797006965570204783944063819944858551025e-02,1.000000000000000020816681711721685132943093776703e-02
6.600000000000003641531520770513452589511871337891e-01,-5.309296388879455180775934763914847280830144882202e-02,-6.099625479246613413142341642014798708260059356689e-02,1.000000000000000020816681711721685132943093776703e-02
6.700000000000003730349362740525975823402404785156e-01,-5.314846575761275615512602144008269533514976501465e-02,-6.101874472402969706852360332050011493265628814697e-02,1.000000000000000020816681711721685132943093776703e-02
6.800000000000003819167204710538499057292938232422e-01,-5.320423484023840271506244903321203310042619705200e-02,-6.104145520533720697953228295773442368954420089722e-02,1.000000000000000020816681711721685132943093776703e-02
6.900000000000003907985046680551022291183471679688e-01,-5.326027157776446613324239365283574443310499191284e-02,-6.106438622901125962139090574964939150959253311157e-02,1.000000000000000020816681711721685132943093776703e-02
7.000000000000003996802888650563545525074005126953e-01,-5.331657641301143502055026601738063618540763854980e-02,-6.108753778760872554798311284685041755437850952148e-02,1.000000000000000020816681711721685132943093776703e-02
7.100000000000004085620730620576068758964538574219e-01,-5.337314979053014996068782238580752164125442504883e-02,-6.111090987360877357925659225657000206410884857178e-02,1.000000000000000020816681711721685132943093776703e-02
7.200000000000004174438572590588591992855072021484e-01,-5.342999215660456518994791963450552430003881454468e-02,-6.113450247940080406472418417251901701092720031738e-02,1.000000000000000020816681711721685132943093776703e-02
7.300000000000004263256414560601115226745605468750e-01,-5.348710395925451721588217424141475930809974670410e-02,-6.115831559727229194134423551076906733214855194092e-02,1.000000000000000020816681711721685132943093776703e-02
7.400000000000004352074256530613638460636138916016e-01,-5.354448564823844486371129391955037135630846023560e-02,-6.118234921939651183020458802275243215262889862061e-02,1.000000000000000020816681711721685132943093776703e-02
7.500000000000004440892098500626161694526672363281e-01,-5.360213767505608850605369752884143963456153869629e-02,-6.120660333782021456094923905766336247324943542480e-02,1.000000000000000020816681711721685132943093776703e-02
7.600000000000004529709940470638684928417205810547e-01,-5.366006049295116153707851935905637219548225402832e-02,-6.123107794445115104053911636583507061004638671875e-02,1.000000000000000020816681711721685132943093776703e-02
7.700000000000004618527782440651208162307739257812e-01,-5.371825455691397327440128606212965678423643112183e-02,-6.125577303104554061086162164428969845175743103027e-02,1.000000000000000020816681711721685132943093776703e-02
7.800000000000004707345624410663731396198272705078e-01,-5.377672032368405186097959358448861166834831237793e-02,-6.128068858919542144514380765940586570650339126587e-02,1.000000000000000020816681711721685132943093776703e-02
7.900000000000004796163466380676254630088806152344e-01,-5.383545825175273247253926456323824822902679443359e-02,-6.130582461031592461653261239007406402379274368286e-02,1.000000000000000020816681711721685132943093776703e-02
8.000000000000004884981308350688777863979339599609e-01,-5.389446880136568307495537055729073472321033477783e-02,-6.133118108563242326658482284074125345796346664429e-02,1.000000000000000020816681711721685132943093776703e-02
8.100000000000004973799150320701301097869873046875e-01,-5.395375243452543712052715818572323769330978393555e-02,-6.135675800616759156813628806048654951155185699463e-02,1.000000000000000020816681711721685132943093776703e-02
8.200000000000005062616992290713824331760406494141e-01,-5.401330961499389154978345572999387513846158981323e-02,-6.138255536272837348255038136812800075858831405640e-02,1.000000000000000020816681711721685132943093776703e-02
8.300000000000005151434834260726347565650939941406e-01,-5.407314080829473540434904066387389320880174636841e-02,-6.140857314589284049466400006167532410472631454468e-02,1.000000000000000020816681711721685132943093776703e-02
8.400000000000005240252676230738870799541473388672e-01,-5.413324648171592007317443062675010878592729568481e-02,-6.143481134599695914211281433381373062729835510254e-02,1.000000000000000020816681711721685132943093776703e-02
8.500000000000005329070518200751394033432006835938e-01,-5.419362710431201157756930797404493205249309539795e-02,-6.146126995312124058346014976450533140450716018677e-02,1.000000000000000020816681711721685132943093776703e-02
8.600000000000005417888360170763917267322540283203e-01,-5.425428314690659142849327167823503259569406509399e-02,-6.148794895707731383849292683407838921993970870972e-02,1.000000000000000020816681711721685132943093776703e-02
8.700000000000005506706202140776440501213073730469e-01,-5.431521508209457421711974234312947373837232589722e-02,-6.151484834739436025063952229174901731312274932861e-02,1.000000000000000020816681711721685132943093776703e-02
8.800000000000005595524044110788963735103607177734e-01,-5.437642338424451132761205940369109157472848892212e-02,-6.154196811330547856044859145185910165309906005859e-02,1.000000000000000020816681711721685132943093776703e-02
8.900000000000005684341886080801486968994140625000e-01,-5.443790852950085995543005878971598576754331588745e-02,-6.156930824373393201787152406723180320113897323608e-02,1.000000000000000020816681711721685132943093776703e-02
