time,u0,u1,tau
0.000000000000000000000000000000000000000000000000e+00,0.000000000000000000000000000000000000000000000000e+00,-8.000000000000000166533453693773481063544750213623e-02,1.000000000000000020816681711721685132943093776703e-02
1.000000000000000020816681711721685132943093776703e-02,-5.263000293621301580501009587109706444607581943274e-05,-8.000014911335696921046434226809651590883731842041e-02,1.000000000000000020816681711721685132943093776703e-02
2.000000000000000041633363423443370265886187553406e-02,-1.055601977138873889079315193662012006825534626842e-04,-8.000060580618748029557707468484295532107353210449e-02,1.000000000000000020816681711721685132943093776703e-02
2.999999999999999888977697537484345957636833190918e-02,-1.587909628619556018543079733973399925162084400654e-04,-8.000137012359900823277314430015394464135169982910e-02,1.000000000000000020816681711721685132943093776703e-02
4.000000000000000083266726846886740531772375106812e-02,-2.123226788631995187381362732992329256376251578331e-04,-8.000244211198685728714252718418720178306102752686e-02,1.000000000000000020816681711721685132943093776703e-02
5.000000000000000277555756156289135105907917022705e-02,-2.661557281644607100834498680796968983486294746399e-04,-8.000382181903011036272488354370580054819583892822e-02,1.000000000000000020816681711721685132943093776703e-02
6.000000000000000471844785465691529680043458938599e-02,-3.202904951868356395530690328143919032299891114235e-04,-8.000550929368753505510625245733535848557949066162e-02,1.000000000000000020816681711721685132943093776703e-02
7.000000000000000666133814775093924254179000854492e-02,-3.747273663358561190603324142500696325441822409630e-04,-8.000750458619342031507670753853744827210903167725e-02,1.000000000000000020816681711721685132943093776703e-02
8.000000000000000166533453693773481063544750213623e-02,-4.294667300116546799181038718273839549510739743710e-04,-8.000980774805332984556116571184247732162475585938e-02,1.000000000000000020816681711721685132943093776703e-02
8.999999999999999666933092612453037872910499572754e-02,-4.845089766191160661999715042469460968277417123318e-04,-8.001241883203977223182334910234203562140464782715e-02,1.000000000000000020816681711721685132943093776703e-02
9.999999999999999167332731531132594682276248931885e-02,-5.398544985780141455822267460007424233481287956238e-04,-8.001533789218782943830632348181097768247127532959e-02,1.000000000000000020816681711721685132943093776703e-02
1.099999999999999866773237044981215149164199829102e-01,-5.955036903331351050283615222724620252847671508789e-04,-8.001856498379068816095838201363221742212772369385e-02,1.000000000000000020816681711721685132943093776703e-02
1.199999999999999816813200936849170830100774765015e-01,-6.514569483643871481565179593076209130231291055679e-04,-8.002210016339507403504427429652423597872257232666e-02,1.000000000000000020816681711721685132943093776703e-02
1.299999999999999766853164828717126511037349700928e-01,-7.077146711968960437685871589508224133169278502464e-04,-8.002594348879665808738081977935507893562316894531e-02,1.000000000000000020816681711721685132943093776703e-02
1.399999999999999855671006798729649744927883148193e-01,-7.642772594110883686846502627076915814541280269623e-04,-8.003009501903536604405786647475906647741794586182e-02,1.000000000000000020816681711721685132943093776703e-02
1.499999999999999944488848768742172978818416595459e-01,-8.211451156527611438401548227261628198903053998947e-04,-8.003455481439060437143240278601297177374362945557e-02,1.000000000000000020816681711721685132943093776703e-02
1.600000000000000033306690738754696212708950042725e-01,-8.783186446431390020581075894767764111747965216637e-04,-8.003932293637640305039582244717166759073734283447e-02,1.000000000000000020816681711721685132943093776703e-02
1.700000000000000122124532708767219446599483489990e-01,-9.357982531889189959165009646824273659149184823036e-04,-8.004439944773650283948995820537675172090530395508e-02,1.000000000000000020816681711721685132943093776703e-02
1.800000000000000210942374678779742680490016937256e-01,-9.935843501923029372907558709471231850329786539078e-04,-8.004978441243935927129626861642464064061641693115e-02,1.000000000000000020816681711721685132943093776703e-02
1.900000000000000299760216648792265914380550384521e-01,-1.051677346661017376991398286634193937061354517937e-03,-8.005547789567304950431037013913737609982490539551e-02,1.000000000000000020816681711721685132943093776703e-02
2.000000000000000388578058618804789148271083831787e-01,-1.110077655718322633959793677149718860164284706116e-03,-8.006147996384010978587753015744965523481369018555e-02,1.000000000000000020816681711721685132943093776703e-02
2.100000000000000477395900588817312382161617279053e-01,-1.168785692613009572979332340025848679943010210991e-03,-8.006779068455230352618912093021208420395851135254e-02,1.000000000000000020816681711721685132943093776703e-02
2.200000000000000566213742558829835616052150726318e-01,-1.227801874729385215104238149308457650477066636086e-03,-8.007441012662530610555222665425390005111694335938e-02,1.000000000000000020816681711721685132943093776703e-02
2.300000000000000655031584528842358849942684173584e-01,-1.287126621597247397646435196350012120092287659645e-03,-8.008133836007326478156898019733489491045475006104e-02,1.000000000000000020816681711721685132943093776703e-02
2.400000000000000743849426498854882083833217620850e-01,-1.346760354901848158459820581356325419619679450989e-03,-8.008857545610337247410370764555409550666809082031e-02,1.000000000000000020816681711721685132943093776703e-02
2.500000000000000555111512312578270211815834045410e-01,-1.406703498493846928724115841191633080597966909409e-03,-8.009612148711024726122076344836386851966381072998e-02,1.000000000000000020816681711721685132943093776703e-02
2.600000000000000643929354282590793445706367492676e-01,-1.466956478399252666866559025038441177457571029663e-03,-8.010397652667031187512236556358402594923973083496e-02,1.000000000000000020816681711721685132943093776703e-02
2.700000000000000732747196252603316679596900939941e-01,-1.527519722829356668344913394719242205610498785973e-03,-8.011214064953606217578396808676188811659812927246e-02,1.000000000000000020816681711721685132943093776703e-02
2.800000000000000821565038222615839913487434387207e-01,-1.588393662190654533408751269973890885012224316597e-03,-8.012061393163021072449936355042154900729656219482e-02,1.000000000000000020816681711721685132943093776703e-02
2.900000000000000910382880192628363147377967834473e-01,-1.649578729094758377041185504197073896648362278938e-03,-8.012939645003981647963797740885638631880283355713e-02,1.000000000000000020816681711721685132943093776703e-02
3.000000000000000999200722162640886381268501281738e-01,-1.711075358368300148442786579039420757908374071121e-03,-8.013848828301030347009970000726752914488315582275e-02,1.000000000000000020816681711721685132943093776703e-02
3.100000000000001088018564132653409615159034729004e-01,-1.772883987062824975855512832367821829393506050110e-03,-8.014788950993935456867944822079152800142765045166e-02,1.000000000000000020816681711721685132943093776703e-02
3.200000000000001176836406102665932849049568176270e-01,-1.835005054464675187247957310887613857630640268326e-03,-8.015760021137076363206830365015775896608829498291e-02,1.000000000000000020816681711721685132943093776703e-02
3.300000000000001265654248072678456082940101623535e-01,-1.897439002104866091064083732931067061144858598709e-03,-8.016762046898820437412780393060529604554176330566e-02,1.000000000000000020816681711721685132943093776703e-02
3.400000000000001354472090042690979316830635070801e-01,-1.960186273768952432833279075907739752437919378281e-03,-8.017795036560884658349834808177547529339790344238e-02,1.000000000000000020816681711721685132943093776703e-02
3.500000000000001443289932012703502550721168518066e-01,-2.023247315506886395003460776820247701834887266159e-03,-8.018858998517697234120760185760445892810821533203e-02,1.000000000000000020816681711721685132943093776703e-02
3.600000000000001532107773982716025784611701965332e-01,-2.086622575642868224199411031349882250651717185974e-03,-8.019953941275743958261301713719149120151996612549e-02,1.000000000000000020816681711721685132943093776703e-02
3.700000000000001620925615952728549018502235412598e-01,-2.150312504785186450140255232099661952815949916840e-03,-8.021079873452909014819312005784013308584690093994e-02,1.000000000000000020816681711721685132943093776703e-02
3.800000000000001709743457922741072252392768859863e-01,-2.214317555836052466705643482214327377732843160629e-03,-8.022236803777800517867291318907518871128559112549e-02,1.000000000000000020816681711721685132943093776703e-02
3.900000000000001798561299892753595486283302307129e-01,-2.278638184001426873065421219166637456510215997696e-03,-8.023424741089077438793708552111638709902763366699e-02,1.000000000000000020816681711721685132943093776703e-02
4.000000000000001887379141862766118720173835754395e-01,-2.343274846800837141191919954508193768560886383057e-03,-8.024643694334758492470172086541424505412578582764e-02,1.000000000000000020816681711721685132943093776703e-02
4.100000000000001976196983832778641954064369201660e-01,-2.408228004077188778159213100593660783488303422928e-03,-8.025893672571524084524696718290215358138084411621e-02,1.000000000000000020816681711721685132943093776703e-02
4.200000000000002065014825802791165187954902648926e-01,-2.473498118006570416910205878480155661236494779587e-03,-8.027174684964009931942285902550793252885341644287e-02,1.000000000000000020816681711721685132943093776703e-02
4.300000000000002153832667772803688421845436096191e-01,-2.539085653108049799725476347589392389636486768723e-03,-8.028486740784092356992829309092485345900058746338e-02,1.000000000000000020816681711721685132943093776703e-02
4.400000000000002242650509742816211655735969543457e-01,-2.604991076253463690159950516544995480217039585114e-03,-8.029829849410159703371192563281510956585407257080e-02,1.000000000000000020816681711721685132943093776703e-02
4.500000000000002331468351712828734889626502990723e-01,-2.671214856677203448170887511992077634204179048538e-03,-8.031204020326379589000964642764301970601081848145e-02,1.000000000000000020816681711721685132943093776703e-02
4.600000000000002420286193682841258123517036437988e-01,-2.737757465985990196905008886574250936973839998245e-03,-8.032609263121950893271616678248392418026924133301e-02,1.000000000000000020816681711721685132943093776703e-02
4.700000000000002509104035652853781357407569885254e-01,-2.804619378168647821081282955901770037598907947540e-03,-8.034045587490350193160537628500605933368206024170e-02,1.000000000000000020816681711721685132943093776703e-02
4.800000000000002597921877622866304591298103332520e-01,-2.871801069605866858075460257282429665792733430862e-03,-8.035513003228568484903604485225514508783817291260e-02,1.000000000000000020816681711721685132943093776703e-02
4.900000000000002686739719592878827825188636779785e-01,-2.939303019079964485876788060636499722022563219070e-03,-8.037011520236335415656725444932817481458187103271e-02,1.000000000000000020816681711721685132943093776703e-02
5.000000000000002220446049250313080847263336181641e-01,-3.007125707784638005831689966385056322906166315079e-03,-8.038541148515333800705917610684991814196109771729e-02,1.000000000000000020816681711721685132943093776703e-02
5.100000000000002309263891220325604081153869628906e-01,-3.075269619334712687536148578715256007853895425797e-03,-8.040101898168407201783480786616564728319644927979e-02,1.000000000000000020816681711721685132943093776703e-02
5.200000000000002398081733190338127315044403076172e-01,-3.143735239775885710600267231029647518880665302277e-03,-8.041693779398752239817582676550955511629581451416e-02,1.000000000000000020816681711721685132943093776703e-02
5.300000000000002486899575160350650548934936523438e-01,-3.212523057594462733838058809965332329738885164261e-03,-8.043316802509106744345501738280290737748146057129e-02,1.000000000000000020816681711721685132943093776703e-02
5.400000000000002575717417130363173782825469970703e-01,-3.281633563727091862372020614202483557164669036865e-03,-8.044970977900922637360281441942788660526275634766e-02,1.000000000000000020816681711721685132943093776703e-02
5.500000000000002664535259100375697016716003417969e-01,-3.351067251570491109524674300246260827407240867615e-03,-8.046656316073530490484699839726090431213378906250e-02,1.000000000000000020816681711721685132943093776703e-02
5.600000000000002753353101070388220250606536865234e-01,-3.420824616991171955582284880392762715928256511688e-03,-8.048372827623295755472554446896538138389587402344e-02,1.000000000000000020816681711721685132943093776703e-02
5.700000000000002842170943040400743484497070312500e-01,-3.490906158335158569749889778677243157289922237396e-03,-8.050120523242759729143358526926022022962570190430e-02,1.000000000000000020816681711721685132943093776703e-02
5.800000000000002930988785010413266718387603759766e-01,-3.561312376437702695297637944804591825231909751892e-03,-8.051899413719773579423133469390450045466423034668e-02,1.000000000000000020816681711721685132943093776703e-02
5.900000000000003019806626980425789952278137207031e-01,-3.632043774632993764217570031860304879955947399139e-03,-8.053709509936621269154954916302813217043876647949e-02,1.000000000000000020816681711721685132943093776703e-02
6.000000000000003108624468950438313186168670654297e-01,-3.703100858763865976114315614609040494542568922043e-03,-8.055550822869128602121691073989495635032653808594e-02,1.000000000000000020816681711721685132943093776703e-02
6.100000000000003197442310920450836420059204101562e-01,-3.774484137191501907648838454178985557518899440765e-03,-8.057423363585768105732398680629557929933071136475e-02,1.000000000000000020816681711721685132943093776703e-02
6.200000000000003286260152890463359653949737548828e-01,-3.846194120805130484130884838123165536671876907349e-03,-8.059327143246744484805788033554563298821449279785e-02,1.000000000000000020816681711721685132943093776703e-02
6.300000000000003375077994860475882887840270996094e-01,-3.918231323031724083749693932077207136899232864380e-03,-8.061262173103075912017345672211376950144767761230e-02,1.000000000000000020816681711721685132943093776703e-02
6.400000000000003463895836830488406121730804443359e-01,-3.990596259845689136591673218390496913343667984009e-03,-8.063228464495661440558649246668210253119468688965e-02,1.000000000000000020816681711721685132943093776703e-02
6.500000000000003552713678800500929355621337890625e-01,-4.063289449778559325743287899967981502413749694824e-03,-8.065226028854337314566436134555260650813579559326e-02,1.000000000000000020816681711721685132943093776703e-02
6.600000000000003641531520770513452589511871337891e-01,-4.136311413928677079010487460664080572314560413361e-03,-8.067254877696922177321425806439947336912155151367e-02,1.000000000000000020816681711721685132943093776703e-02
6.700000000000003730349362740525975823402404785156e-01,-4.209662675970879397446822167694335803389549255371e-03,-8.069315022628249789438115158191067166626453399658e-02,1.000000000000000020816681711721685132943093776703e-02
6.800000000000003819167204710538499057292938232422e-01,-4.283343762166180214434607620432871044613420963287e-03,-8.071406475339192032603108373223221860826015472412e-02,1.000000000000000020816681711721685132943093776703e-02
6.900000000000003907985046680551022291183471679688e-01,-4.357355201371444948510447403577927616424858570099e-03,-8.073529247605673586640762096067192032933235168457e-02,1.000000000000000020816681711721685132943093776703e-02
7.000000000000003996802888650563545525074005126953e-01,-4.431697525049068525637707693931588437408208847046e-03,-8.075683351287664402118338102809502743184566497803e-02,1.000000000000000020816681711721685132943093776703e-02
7.100000000000004085620730620576068758964538574219e-01,-4.506371267276648197308563936758218915201723575592e-03,-8.077868798328173560729936752977664582431316375732e-02,1.000000000000000020816681711721685132943093776703e-02
7.200000000000004174438572590588591992855072021484e-01,-4.581376964756654623922571545335813425481319427490e-03,-8.080085600752220931219937938294606283307075500488e-02,1.000000000000000020816681711721685132943093776703e-02
7.300000000000004263256414560601115226745605468750e-01,-4.656715156826101223441760623700247379019856452942e-03,-8.082333770665803274191318905650405213236808776855e-02,1.000000000000000020816681711721685132943093776703e-02
7.400000000000004352074256530613638460636138916016e-01,-4.732386385466210917960516724178887670859694480896e-03,-8.084613320254845081347383484171587042510509490967e-02,1.000000000000000020816681711721685132943093776703e-02
7.500000000000004440892098500626161694526672363281e-01,-4.808391195312081145551985628117108717560768127441e-03,-8.086924261784139700282025842170696705579757690430e-02,1.000000000000000020816681711721685132943093776703e-02
7.600000000000004529709940470638684928417205810547e-01,-4.884730133662348872114478126604808494448661804199e-03,-8.089266607596276581482186429639114066958427429199e-02,1.000000000000000020816681711721685132943093776703e-02
7.700000000000004618527782440651208162307739257812e-01,-4.961403750488851266409184859185188543051481246948e-03,-8.091640370110557423100061669174465350806713104248e-02,1.000000000000000020816681711721685132943093776703e-02
7.800000000000004707345624410663731396198272705078e-01,-5.038412598446288977183105117774175596423447132111e-03,-8.094045561821895662379944269559928216040134429932e-02,1.000000000000000020816681711721685132943093776703e-02
7.900000000000004796163466380676254630088806152344e-01,-5.115757232881882471398071743351465556770563125610e-03,-8.096482195299713191527501976452185772359371185303e-02,1.000000000000000020816681711721685132943093776703e-02
8.000000000000004884981308350688777863979339599609e-01,-5.193438211845033576630203953072850708849728107452e-03,-8.098950283186812093561002257047221064567565917969e-02,1.000000000000000020816681711721685132943093776703e-02
8.100000000000004973799150320701301097869873046875e-01,-5.271456096096979217213718271750622079707682132721e-03,-8.101449838198246378162536984746111556887626647949e-02,1.000000000000000020816681711721685132943093776703e-02
8.200000000000005062616992290713824331760406494141e-01,-5.349811449120450354555167393755255034193396568298e-03,-8.103980873120170125289973839244339615106582641602e-02,1.000000000000000020816681711721685132943093776703e-02
8.300000000000005151434834260726347565650939941406e-01,-5.428504837129327458000727091302906046621501445770e-03,-8.106543400808680077673784580838400870561599731445e-02,1.000000000000000020816681711721685132943093776703e-02
8.400000000000005240252676230738870799541473388672e-01,-5.507536829078293373618269157532267854548990726471e-03,-8.109137434188641579968503947384306229650974273682e-02,1.000000000000000020816681711721685132943093776703e-02
8.500000000000005329070518200751394033432006835938e-01,-5.586907996672488795064648314792066230438649654388e-03,-8.111762986252502027895161518245004117488861083984e-02,1.000000000000000020816681711721685132943093776703e-02
8.600000000000005417888360170763917267322540283203e-01,-5.666618914377165999729513146121462341398000717163e-03,-8.114420070059091827374686545226722955703735351562e-02,1.000000000000000020816681711721685132943093776703e-02
8.700000000000005506706202140776440501213073730469e-01,-5.746670159427340850155641049923360696993768215179e-03,-8.117108698732412863652285750504233874380588531494e-02,1.000000000000000020816681711721685132943093776703e-02
8.800000000000005595524044110788963735103607177734e-01,-5.827062311837446530182749171444811508990824222565e-03,-8.119828885460414480412794091535033658146858215332e-02,1.000000000000000020816681711721685132943093776703e-02
8.900000000000005684341886080801486968994140625000e-01,-5.907795954410986413729567345853865845128893852234e-03,-8.122580643493750029993094585734070278704166412354e-02,1.000000000000000020816681711721685132943093776703e-02
