time,u0,u1,tau
0.000000000000000000000000000000000000000000000000e+00,-2.000000000000001776356839400250464677810668945312e-02,-2.999999999999999888977697537484345957636833190918e-02,1.000000000000000020816681711721685132943093776703e-02
1.000000000000000020816681711721685132943093776703e-02,-2.001361658452560296495015279560902854427695274353e-02,-3.000701607491292749463340783222520258277654647827e-02,1.000000000000000020816681711721685132943093776703e-02
2.000000000000000041633363423443370265886187553406e-02,-2.002735004179017480607782886181666981428861618042e-02,-3.001414866476238493819828079267608700320124626160e-02,1.000000000000000020816681711721685132943093776703e-02
2.999999999999999888977697537484345957636833190918e-02,-2.004120049225915911605966357456054538488388061523e-02,-3.002139785251548009803457262023584917187690734863e-02,1.000000000000000020816681711721685132943093776703e-02
4.000000000000000083266726846886740531772375106812e-02,-2.005516805709650282607547921998047968372702598572e-02,-3.002876372173567814938266451463277917355298995972e-02,1.000000000000000020816681711721685132943093776703e-02
5.000000000000000277555756156289135105907917022705e-02,-2.006925285816617623990687491186690749600529670715e-02,-3.003624635658298097640184209922153968364000320435e-02,1.000000000000000020816681711721685132943093776703e-02
6.000000000000000471844785465691529680043458938599e-02,-2.008345501803365795723266273853369057178497314453e-02,-3.004384584181410411396484505530679598450660705566e-02,1.000000000000000020816681711721685132943093776703e-02
7.000000000000000666133814775093924254179000854492e-02,-2.009777465996742326637125586330512305721640586853e-02,-3.005156226278261899498289722032495774328708648682e-02,1.000000000000000020816681711721685132943093776703e-02
8.000000000000000166533453693773481063544750213623e-02,-2.011221190794040825089439294970361515879631042480e-02,-3.005939570543908825883683277879754314199090003967e-02,1.000000000000000020816681711721685132943093776703e-02
8.999999999999999666933092612453037872910499572754e-02,-2.012676688663147042679391063302318798378109931946e-02,-3.006734625633119065146736659244197653606534004211e-02,1.000000000000000020816681711721685132943093776703e-02
9.999999999999999167332731531132594682276248931885e-02,-2.014143972142684244075461208467459073290228843689e-02,-3.007541400260383204767755671582563081756234169006e-02,1.000000000000000020816681711721685132943093776703e-02
1.099999999999999866773237044981215149164199829102e-01,-2.015623053842158229898018362291622906923294067383e-02,-3.008359903199923912620050714394892565906047821045e-02,1.000000000000000020816681711721685132943093776703e-02
1.199999999999999816813200936849170830100774765015e-01,-2.017113946442099930989044764828577172011137008667e-02,-3.009190143285702528919145493091491516679525375366e-02,1.000000000000000020816681711721685132943093776703e-02
1.299999999999999766853164828717126511037349700928e-01,-2.018616662694209043515947143987432355061173439026e-02,-3.010032129411427045950766512305563082918524742126e-02,1.000000000000000020816681711721685132943093776703e-02
1.399999999999999855671006798729649744927883148193e-01,-2.020131215421494541573110836907289922237396240234e-02,-3.010885870530555577517795029507396975532174110413e-02,1.000000000000000020816681711721685132943093776703e-02
1.499999999999999944488848768742172978818416595459e-01,-2.021657617518416577562234692777565214782953262329e-02,-3.011751375656300869221304594702814938500523567200e-02,1.000000000000000020816681711721685132943093776703e-02
1.600000000000000033306690738754696212708950042725e-01,-2.023195881951026300904494803489797050133347511292e-02,-3.012628653861631339294646636517427396029233932495e-02,1.000000000000000020816681711721685132943093776703e-02
1.700000000000000122124532708767219446599483489990e-01,-2.024746021757104635918622648205200675874948501587e-02,-3.013517714279271078603450462196633452549576759338e-02,1.000000000000000020816681711721685132943093776703e-02
1.800000000000000210942374678779742680490016937256e-01,-2.026308050046300365809592847199382958933711051941e-02,-3.014418566101700197590318452967039775103330612183e-02,1.000000000000000020816681711721685132943093776703e-02
1.900000000000000299760216648792265914380550384521e-01,-2.027881980000267522767920524984219809994101524353e-02,-3.015331218581149969049093328976596239954233169556e-02,1.000000000000000020816681711721685132943093776703e-02
2.000000000000000388578058618804789148271083831787e-01,-2.029467824872801737234873087345476960763335227966e-02,-3.016255681029600399511991781764663755893707275391e-02,1.000000000000000020816681711721685132943093776703e-02
2.100000000000000477395900588817312382161617279053e-01,-2.031065597989976240222986803019011858850717544556e-02,-3.017191962818773290355700567033636616542935371399e-02,1.000000000000000020816681711721685132943093776703e-02
2.200000000000000566213742558829835616052150726318e-01,-2.032675312750275437023717017837043385952711105347e-02,-3.018140073380125645852167792781983735039830207825e-02,1.000000000000000020816681711721685132943093776703e-02
2.300000000000000655031584528842358849942684173584e-01,-2.034296982624729521749173954958678223192691802979e-02,-3.019100022204839611772442253823101054877042770386e-02,1.000000000000000020816681711721685132943093776703e-02
2.400000000000000743849426498854882083833217620850e-01,-2.035930621157046663260992147570505039766430854797e-02,-3.020071818843813454824598352388420607894659042358e-02,1.000000000000000020816681711721685132943093776703e-02
2.500000000000000555111512312578270211815834045410e-01,-2.037576241963745191099199871587188681587576866150e-02,-3.021055472907648378755318674393492983654141426086e-02,1.000000000000000020816681711721685132943093776703e-02
2.600000000000000643929354282590793445706367492676e-01,-2.039233858734284046687612601544969948008656501770e-02,-3.022050994066635340451476565704069798812270164490e-02,1.000000000000000020816681711721685132943093776703e-02
2.700000000000000732747196252603316679596900939941e-01,-2.040903485231193581483921661856584250926971435547e-02,-3.023058392050739784373547536233672872185707092285e-02,1.000000000000000020816681711721685132943093776703e-02
2.800000000000000821565038222615839913487434387207e-01,-2.042585135290204273461611705897666979581117630005e-02,-3.024077676649584989210239882595487870275974273682e-02,1.000000000000000020816681711721685132943093776703e-02
2.900000000000000910382880192628363147377967834473e-01,-2.044278822820375096647182999731739982962608337402e-02,-3.025108857712432638975563747862906893715262413025e-02,1.000000000000000020816681711721685132943093776703e-02
3.000000000000000999200722162640886381268501281738e-01,-2.045984561804220502878592924389522522687911987305e-02,-3.026151945148164434939985767414327710866928100586e-02,1.000000000000000020816681711721685132943093776703e-02
3.100000000000001088018564132653409615159034729004e-01,-2.047702366297837403563697478148242225870490074158e-02,-3.027206948925259197280546175079507520422339439392e-02,1.000000000000000020816681711721685132943093776703e-02
3.200000000000001176836406102665932849049568176270e-01,-2.049432250431030069770521606642432743683457374573e-02,-3.028273879071769966730975909285916713997721672058e-02,1.000000000000000020816681711721685132943093776703e-02
3.300000000000001265654248072678456082940101623535e-01,-2.051174228407435379262224728336150292307138442993e-02,-3.029352745675299024563642547036579344421625137329e-02,1.000000000000000020816681711721685132943093776703e-02
3.400000000000001354472090042690979316830635070801e-01,-2.052928314504645634919199892465258017182350158691e-02,-3.030443558882971177848020261080819182097911834717e-02,1.000000000000000020816681711721685132943093776703e-02
3.500000000000001443289932012703502550721168518066e-01,-2.054694523074331730105868132341129239648580551147e-02,-3.031546328901406003875074191000749124214053153992e-02,1.000000000000000020816681711721685132943093776703e-02
3.600000000000001532107773982716025784611701965332e-01,-2.056472868542365620148082427931512938812375068665e-02,-3.032661065996687319024083251406409544870257377625e-02,1.000000000000000020816681711721685132943093776703e-02
3.700000000000001620925615952728549018502235412598e-01,-2.058263365408940365197665300911467056721448898315e-02,-3.033787780494331953740072549408068880438804626465e-02,1.000000000000000020816681711721685132943093776703e-02
3.800000000000001709743457922741072252392768859863e-01,-2.060066028248689826152251214352872921153903007507e-02,-3.034926482779256792787769825281429802998900413513e-02,1.000000000000000020816681711721685132943093776703e-02
3.900000000000001798561299892753595486283302307129e-01,-2.061880871710808707519824167775368550792336463928e-02,-3.036077183295743039948000330241484334692358970642e-02,1.000000000000000020816681711721685132943093776703e-02
4.000000000000001887379141862766118720173835754395e-01,-2.063707910519169824725693729305930901318788528442e-02,-3.037239892547400482714081704216368962079286575317e-02,1.000000000000000020816681711721685132943093776703e-02
4.100000000000001976196983832778641954064369201660e-01,-2.065547159472441718364166263199876993894577026367e-02,-3.038414621097128634485962095368449809029698371887e-02,1.000000000000000020816681711721685132943093776703e-02
4.200000000000002065014825802791165187954902648926e-01,-2.067398633444204880671435375916189514100551605225e-02,-3.039601379567076835930272693531151162460446357727e-02,1.000000000000000020816681711721685132943093776703e-02
4.300000000000002153832667772803688421845436096191e-01,-2.069262347383066941164386776108585763722658157349e-02,-3.040800178638602274672209091477270703762769699097e-02,1.000000000000000020816681711721685132943093776703e-02
4.400000000000002242650509742816211655735969543457e-01,-2.071138316312776811445317548532329965382814407349e-02,-3.042011029052226617208631864741619210690259933472e-02,1.000000000000000020816681711721685132943093776703e-02
4.500000000000002331468351712828734889626502990723e-01,-2.073026555332338483061960232589626684784889221191e-02,-3.043233941607591253042386369997984729707241058350e-02,1.000000000000000020816681711721685132943093776703e-02
4.600000000000002420286193682841258123517036437988e-01,-2.074927079616123090644030924067919841036200523376e-02,-3.044468927163409763259060980544745689257979393005e-02,1.000000000000000020816681711721685132943093776703e-02
4.700000000000002509104035652853781357407569885254e-01,-2.076839904413980975039777376878191716969013214111e-02,-3.045715996637418654380269344983389601111412048340e-02,1.000000000000000020816681711721685132943093776703e-02
4.800000000000002597921877622866304591298103332520e-01,-2.078765045051351664784355932624748675152659416199e-02,-3.046975161006328092216932645897031761705875396729e-02,1.000000000000000020816681711721685132943093776703e-02
4.900000000000002686739719592878827825188636779785e-01,-2.080702516929374204512903645536425756290555000305e-02,-3.048246431305768472386219514191907364875078201294e-02,1.000000000000000020816681711721685132943093776703e-02
5.000000000000002220446049250313080847263336181641e-01,-2.082652335524995054760744039867859100922942161560e-02,-3.049529818630236990828485943438863614574074745178e-02,1.000000000000000020816681711721685132943093776703e-02
5.100000000000002309263891220325604081153869628906e-01,-2.084614516391076338708288062662177253514528274536e-02,-3.050825334133041091821958445962081896141171455383e-02,1.000000000000000020816681711721685132943093776703e-02
5.200000000000002398081733190338127315044403076172e-01,-2.086589075156502701147154255068016937002539634705e-02,-3.052132989026241915997417208927799947559833526611e-02,1.000000000000000020816681711721685132943093776703e-02
5.300000000000002486899575160350650548934936523438e-01,-2.088576027526286085778117751488025533035397529602e-02,-3.053452794580593585016536906096007442101836204529e-02,1.000000000000000020816681711721685132943093776703e-02
5.400000000000002575717417130363173782825469970703e-01,-2.090575389281672247232535255534457974135875701904e-02,-3.054784762125482139305532314210722688585519790649e-02,1.000000000000000020816681711721685132943093776703e-02
5.500000000000002664535259100375697016716003417969e-01,-2.092587176280243099757427671647747047245502471924e-02,-3.056128903048863088010023147944593802094459533691e-02,1.000000000000000020816681711721685132943093776703e-02
5.600000000000002753353101070388220250606536865234e-01,-2.094611404456020106734648322799330344423651695251e-02,-3.057485228797195142558251745867892168462276458740e-02,1.000000000000000020816681711721685132943093776703e-02
5.700000000000002842170943040400743484497070312500e-01,-2.096648089819566282421270386748801684007048606873e-02,-3.058853750875374297168995951778924791142344474792e-02,1.000000000000000020816681711721685132943093776703e-02
5.800000000000002930988785010413266718387603759766e-01,-2.098697248458087846745279136939643649384379386902e-02,-3.060234480846664439912530042420257814228534698486e-02,1.000000000000000020816681711721685132943093776703e-02
5.900000000000003019806626980425789952278137207031e-01,-2.100758896535532410654312229780771303921937942505e-02,-3.061627430332627269882195264472102280706167221069e-02,1.000000000000000020816681711721685132943093776703e-02
6.000000000000003108624468950438313186168670654297e-01,-2.102833050292689937021961554819426964968442916870e-02,-3.063032611013049438808408808654348831623792648315e-02,1.000000000000000020816681711721685132943093776703e-02
6.100000000000003197442310920450836420059204101562e-01,-2.104919726047289191273037545215629506856203079224e-02,-3.064450034625868304893892002382926875725388526917e-02,1.000000000000000020816681711721685132943093776703e-02
6.200000000000003286260152890463359653949737548828e-01,-2.107018940194095579787614269662299193441867828369e-02,-3.065879712967094911091336939534812700003385543823e-02,1.000000000000000020816681711721685132943093776703e-02
6.300000000000003375077994860475882887840270996094e-01,-2.109130709205007253581598547498288098722696304321e-02,-3.067321657890736269491682719490199815481901168823e-02,1.000000000000000020816681711721685132943093776703e-02
6.400000000000003463895836830488406121730804443359e-01,-2.111255049629149130319127891652897233143448829651e-02,-3.068775881308715564044220514006156008690595626831e-02,1.000000000000000020816681711721685132943093776703e-02
6.500000000000003552713678800500929355621337890625e-01,-2.113391978092968304103749233036069199442863464355e-02,-3.070242395190788883829746680476091569289565086365e-02,1.000000000000000020816681711721685132943093776703e-02
6.600000000000003641531520770513452589511871337891e-01,-2.115541511300325985822645691314392024651169776917e-02,-3.071721211564462303278411070550646400079131126404e-02,1.000000000000000020816681711721685132943093776703e-02
6.700000000000003730349362740525975823402404785156e-01,-2.117703666032590137380253736409940756857395172119e-02,-3.073212342514905145995918189782969420775771141052e-02,1.000000000000000020816681711721685132943093776703e-02
6.800000000000003819167204710538499057292938232422e-01,-2.119878459148726024263709177830605767667293548584e-02,-3.074715800184861860810947575828322442248463630676e-02,1.000000000000000020816681711721685132943093776703e-02
6.900000000000003907985046680551022291183471679688e-01,-2.122065907585386421163597958639002172276377677917e-02,-3.076231596774562163099098199836589628830552101135e-02,1.000000000000000020816681711721685132943093776703e-02
7.000000000000003996802888650563545525074005126953e-01,-2.124266028357000776760621363337122602388262748718e-02,-3.077759744541629441383356891037692548707127571106e-02,1.000000000000000020816681711721685132943093776703e-02
7.100000000000004085620730620576068758964538574219e-01,-2.126478838555863337678175639666733331978321075439e-02,-3.079300255800985694487614807712816400453448295593e-02,1.000000000000000020816681711721685132943093776703e-02
7.200000000000004174438572590588591992855072021484e-01,-2.128704355352219190766760448241257108747959136963e-02,-3.080853142924756468690183908165636239573359489441e-02,1.000000000000000020816681711721685132943093776703e-02
7.300000000000004263256414560601115226745605468750e-01,-2.130942595994350999277777702900493750348687171936e-02,-3.082418418342171978485666272717935498803853988647e-02,1.000000000000000020816681711721685132943093776703e-02
7.400000000000004352074256530613638460636138916016e-01,-2.133193577808664004313854434258246328681707382202e-02,-3.083996094539467880402128230343805626034736633301e-02,1.000000000000000020816681711721685132943093776703e-02
7.500000000000004440892098500626161694526672363281e-01,-2.135457318199768597666299285720015177503228187561e-02,-3.085586184059782230426627336328238015994429588318e-02,1.000000000000000020816681711721685132943093776703e-02
7.600000000000004529709940470638684928417205810547e-01,-2.137733834650564976320730181669205194339156150818e-02,-3.087188699503051400596653763841459294781088829041e-02,1.000000000000000020816681711721685132943093776703e-02
7.700000000000004618527782440651208162307739257812e-01,-2.140023144722323980571054846677725436165928840637e-02,-3.088803653525903566978705327983334427699446678162e-02,1.000000000000000020816681711721685132943093776703e-02
7.800000000000004707345624410663731396198272705078e-01,-2.142325266054767238244060933993750950321555137634e-02,-3.090431058841551156812776923743513179942965507507e-02,1.000000000000000020816681711721685132943093776703e-02
7.900000000000004796163466380676254630088806152344e-01,-2.144640216366147655868701349390903487801551818848e-02,-3.092070928219679479265202814985968871042132377625e-02,1.000000000000000020816681711721685132943093776703e-02
8.000000000000004884981308350688777863979339599609e-01,-2.146968013453328522066598793571756687015295028687e-02,-3.093723274486333968402718141987861599773168563843e-02,1.000000000000000020816681711721685132943093776703e-02
8.100000000000004973799150320701301097869873046875e-01,-2.149308675191859488440293546318571316078305244446e-02,-3.095388110523805691443044452171307057142257690430e-02,1.000000000000000020816681711721685132943093776703e-02
8.200000000000005062616992290713824331760406494141e-01,-2.151662219536054632129662422812543809413909912109e-02,-3.097065449270514428392608863305213162675499916077e-02,1.000000000000000020816681711721685132943093776703e-02
8.300000000000005151434834260726347565650939941406e-01,-2.154028664519067048921385776338865980505943298340e-02,-3.098755303720890016960787249900022288784384727478e-02,1.000000000000000020816681711721685132943093776703e-02
8.400000000000005240252676230738870799541473388672e-01,-2.156408028252963793303109696353203617036342620850e-02,-3.100457686925249881082500280626845778897404670715e-02,1.000000000000000020816681711721685132943093776703e-02
8.500000000000005329070518200751394033432006835938e-01,-2.158800328928798389904741839018242899328470230103e-02,-3.102172611989676906385504651098017347976565361023e-02,1.000000000000000020816681711721685132943093776703e-02
8.600000000000005417888360170763917267322540283203e-01,-2.161205584816684038829137648463074583560228347778e-02,-3.103900092075892805376646776949201012030243873596e-02,1.000000000000000020816681711721685132943093776703e-02
8.700000000000005506706202140776440501213073730469e-01,-2.163623814265864045425225015151227125898003578186e-02,-3.105640140401131135683421291560080135241150856018e-02,1.000000000000000020816681711721685132943093776703e-02
8.800000000000005595524044110788963735103607177734e-01,-2.166055035704782250061128934248699806630611419678e-02,-3.107392770238006501903882394799438770860433578491e-02,1.000000000000000020816681711721685132943093776703e-02
8.900000000000005684341886080801486968994140625000e-01,-2.168499267641152070118515382546320324763655662537e-02,-3.109157994914383063567164811047405237331986427307e-02,1.000000000000000020816681711721685132943093776703e-02
