time,u0,u1,tau
0.000000000000000000000000000000000000000000000000e+00,-2.999999999999999888977697537484345957636833190918e-02,-8.000000000000000166533453693773481063544750213623e-02,1.000000000000000020816681711721685132943093776703e-02
1.000000000000000020816681711721685132943093776703e-02,-3.005551538062983460419808068309066584333777427673e-02,-8.000338877951609917182906883681425824761390686035e-02,1.000000000000000020816681711721685132943093776703e-02
2.000000000000000041633363423443370265886187553406e-02,-3.011134556911157500458386948594124987721443176270e-02,-8.000707888994723626652216807997319847345352172852e-02,1.000000000000000020816681711721685132943093776703e-02
2.999999999999999888977697537484345957636833190918e-02,-3.016749103555625352579561138099961681291460990906e-02,-8.001107028604921567183083652707864530384540557861e-02,1.000000000000000020816681711721685132943093776703e-02
4.000000000000000083266726846886740531772375106812e-02,-3.022395225216100919651829315171198686584830284119e-02,-8.001536292333892574912823647537152282893657684326e-02,1.000000000000000020816681711721685132943093776703e-02
5.000000000000000277555756156289135105907917022705e-02,-3.028072969321900578809625415033224271610379219055e-02,-8.001995675808450114718795020962716080248355865479e-02,1.000000000000000020816681711721685132943093776703e-02
6.000000000000000471844785465691529680043458938599e-02,-3.033782383512932667724015800558845512568950653076e-02,-8.002485174729530303938673796437797136604785919189e-02,1.000000000000000020816681711721685132943093776703e-02
7.000000000000000666133814775093924254179000854492e-02,-3.039523515640685236149920456227846443653106689453e-02,-8.003004784871189936090729588613612577319145202637e-02,1.000000000000000020816681711721685132943093776703e-02
8.000000000000000166533453693773481063544750213623e-02,-3.045296413769208940247601447026681853458285331726e-02,-8.003554502079583687912389677876490168273448944092e-02,1.000000000000000020816681711721685132943093776703e-02
8.999999999999999666933092612453037872910499572754e-02,-3.051101126176099936904151377348171081393957138062e-02,-8.004134322271941326398803084885003045201301574707e-02,1.000000000000000020816681711721685132943093776703e-02
9.999999999999999167332731531132594682276248931885e-02,-3.056937701353479308608029896277002990245819091797e-02,-8.004744241435524099159692923421971499919891357422e-02,1.000000000000000020816681711721685132943093776703e-02
1.099999999999999866773237044981215149164199829102e-01,-3.062806188008969365821343444622470997273921966553e-02,-8.005384255626585288112551097583491355180740356445e-02,1.000000000000000020816681711721685132943093776703e-02
1.199999999999999816813200936849170830100774765015e-01,-3.068706635066668561573344220505532575771212577820e-02,-8.006054360969304395378998151500127278268337249756e-02,1.000000000000000020816681711721685132943093776703e-02
1.299999999999999766853164828717126511037349700928e-01,-3.074639091668123630496367582054517697542905807495e-02,-8.006754553654724104738704681949457153677940368652e-02,1.000000000000000020816681711721685132943093776703e-02
1.399999999999999855671006798729649744927883148193e-01,-3.080603607173298952304207887209486216306686401367e-02,-8.007484829939669201959162592174834571778774261475e-02,1.000000000000000020816681711721685132943093776703e-02
1.499999999999999944488848768742172978818416595459e-01,-3.086600231161543486657627965996653074398636817932e-02,-8.008245186145658556231552438475773669779300689697e-02,1.000000000000000020816681711721685132943093776703e-02
1.600000000000000033306690738754696212708950042725e-01,-3.092629013432555973306392615995719097554683685303e-02,-8.009035618657804611597583743787254206836223602295e-02,1.000000000000000020816681711721685132943093776703e-02
1.700000000000000122124532708767219446599483489990e-01,-3.098690004007345968894959753470175201073288917542e-02,-8.009856123923704551703650622584973461925983428955e-02,1.000000000000000020816681711721685132943093776703e-02
1.800000000000000210942374678779742680490016937256e-01,-3.104783253129195230712866759859025478363037109375e-02,-8.010706698452316198988398809888167306780815124512e-02,1.000000000000000020816681711721685132943093776703e-02
1.900000000000000299760216648792265914380550384521e-01,-3.110908811264614243219384093208645936101675033569e-02,-8.011587338812829750533950345925404690206050872803e-02,1.000000000000000020816681711721685132943093776703e-02
2.000000000000000388578058618804789148271083831787e-01,-3.117066729104297356789388118158967699855566024780e-02,-8.012498041633524248350539664897951297461986541748e-02,1.000000000000000020816681711721685132943093776703e-02
2.100000000000000477395900588817312382161617279053e-01,-3.123257057564075497846367568399728043004870414734e-02,-8.013438803600612947430903432177728973329067230225e-02,1.000000000000000020816681711721685132943093776703e-02
2.200000000000000566213742558829835616052150726318e-01,-3.129479847785866103437868446235370356589555740356e-02,-8.014409621457080357131985692831221967935562133789e-02,1.000000000000000020816681711721685132943093776703e-02
2.300000000000000655031584528842358849942684173584e-01,-3.135735151138621668032158140704268589615821838379e-02,-8.015410492001504016990054424240952357649803161621e-02,1.000000000000000020816681711721685132943093776703e-02
2.400000000000000743849426498854882083833217620850e-01,-3.142023019219274126978547201360925100743770599365e-02,-8.016441412086872109199475744389928877353668212891e-02,1.000000000000000020816681711721685132943093776703e-02
2.500000000000000555111512312578270211815834045410e-01,-3.148343503853678893023015916696749627590179443359e-02,-8.017502378619380254409776398460962809622287750244e-02,1.000000000000000020816681711721685132943093776703e-02
2.600000000000000643929354282590793445706367492676e-01,-3.154696657097555423376888938946649432182312011719e-02,-8.018593388557225531965144682544632814824581146240e-02,1.000000000000000020816681711721685132943093776703e-02
2.700000000000000732747196252603316679596900939941e-01,-3.161082531237424664283253150642849504947662353516e-02,-8.019714438909385234577342771444818936288356781006e-02,1.000000000000000020816681711721685132943093776703e-02
2.800000000000000821565038222615839913487434387207e-01,-3.167501178791545801693985140445875003933906555176e-02,-8.020865526734381745210811232027481310069561004639e-02,1.000000000000000020816681711721685132943093776703e-02
2.900000000000000910382880192628363147377967834473e-01,-3.173952652510850236389217116084182634949684143066e-02,-8.022046649139041862852650410786736756563186645508e-02,1.000000000000000020816681711721685132943093776703e-02
3.000000000000000999200722162640886381268501281738e-01,-3.180437005379872783539241254402440972626209259033e-02,-8.023257803277240862716013225508504547178745269775e-02,1.000000000000000020816681711721685132943093776703e-02
3.100000000000001088018564132653409615159034729004e-01,-3.186954290617679402819462097795621957629919052124e-02,-8.024498986348632678655690142477396875619888305664e-02,1.000000000000000020816681711721685132943093776703e-02
3.200000000000001176836406102665932849049568176270e-01,-3.193504561678794234635958559920254629105329513550e-02,-8.025770195597371758911009465009556151926517486572e-02,1.000000000000000020816681711721685132943093776703e-02
3.300000000000001265654248072678456082940101623535e-01,-3.200087872254125248572265149960003327578306198120e-02,-8.027071428310823819618491370420088060200214385986e-02,1.000000000000000020816681711721685132943093776703e-02
3.400000000000001354472090042690979316830635070801e-01,-3.206704276271885034610420461831381544470787048340e-02,-8.028402681818259944979132569642388261854648590088e-02,1.000000000000000020816681711721685132943093776703e-02
3.500000000000001443289932012703502550721168518066e-01,-3.213353827898508818794454100498114712536334991455e-02,-8.029763953489540972974225496727740392088890075684e-02,1.000000000000000020816681711721685132943093776703e-02
3.600000000000001532107773982716025784611701965332e-01,-3.220036581539574560562044780454016290605068206787e-02,-8.031155240733792166629712028225185349583625793457e-02,1.000000000000000020816681711721685132943093776703e-02
3.700000000000001620925615952728549018502235412598e-01,-3.226752591840716111182274516977486200630664825439e-02,-8.032576540998061231935167825213284231722354888916e-02,1.000000000000000020816681711721685132943093776703e-02
3.800000000000001709743457922741072252392768859863e-01,-3.233501913688536372193382817386009264737367630005e-02,-8.034027851765968009090101986657828092575073242188e-02,1.000000000000000020816681711721685132943093776703e-02
3.900000000000001798561299892753595486283302307129e-01,-3.240284602211516984393568918676464818418025970459e-02,-8.035509170556338898183668106867116875946521759033e-02,1.000000000000000020816681711721685132943093776703e-02
4.000000000000001887379141862766118720173835754395e-01,-3.247100712780925241274232462274085264652967453003e-02,-8.037020494921827407086567518490483053028583526611e-02,1.000000000000000020816681711721685132943093776703e-02
4.100000000000001976196983832778641954064369201660e-01,-3.253950301011722390231994950227090157568454742432e-02,-8.038561822447527760449048628288437612354755401611e-02,1.000000000000000020816681711721685132943093776703e-02
4.200000000000002065014825802791165187954902648926e-01,-3.260833422763464300997426903450104873627424240112e-02,-8.040133150749569079795975312663358636200428009033e-02,1.000000000000000020816681711721685132943093776703e-02
4.300000000000002153832667772803688421845436096191e-01,-3.267750134141203521842555801413254812359809875488e-02,-8.041734477473701236949210624516126699745655059814e-02,1.000000000000000020816681711721685132943093776703e-02
4.400000000000002242650509742816211655735969543457e-01,-3.274700491496386478562641286771395243704319000244e-02,-8.043365800293865441883411904200329445302486419678e-02,1.000000000000000020816681711721685132943093776703e-02
4.500000000000002331468351712828734889626502990723e-01,-3.281684551427750673457950369993341155350208282471e-02,-8.045027116910755116130360420356737449765205383301e-02,1.000000000000000020816681711721685132943093776703e-02
4.600000000000002420286193682841258123517036437988e-01,-3.288702370782219108757971071099746040999889373779e-02,-8.046718425050358725059140851953998208045959472656e-02,1.000000000000000020816681711721685132943093776703e-02
4.700000000000002509104035652853781357407569885254e-01,-3.295754006655790546709283717063954100012779235840e-02,-8.048439722462490120147293737318250350654125213623e-02,1.000000000000000020816681711721685132943093776703e-02
4.800000000000002597921877622866304591298103332520e-01,-3.302839516394428381884651457767176907509565353394e-02,-8.050191006919311942358064015934360213577747344971e-02,1.000000000000000020816681711721685132943093776703e-02
4.900000000000002686739719592878827825188636779785e-01,-3.309958957594948125713330000507994554936885833740e-02,-8.051972276213836821057157067116349935531616210938e-02,1.000000000000000020816681711721685132943093776703e-02
5.000000000000002220446049250313080847263336181641e-01,-3.317112388105902115453815781620505731552839279175e-02,-8.053783528158420246256810060003772377967834472656e-02,1.000000000000000020816681711721685132943093776703e-02
5.100000000000002309263891220325604081153869628906e-01,-3.324299866028460059830251793755451217293739318848e-02,-8.055624760583240950850836270547006279230117797852e-02,1.000000000000000020816681711721685132943093776703e-02
5.200000000000002398081733190338127315044403076172e-01,-3.331521449717289584668833413161337375640869140625e-02,-8.057495971334763251725519239698769524693489074707e-02,1.000000000000000020816681711721685132943093776703e-02
5.300000000000002486899575160350650548934936523438e-01,-3.338777197781434696866043054797046352177858352661e-02,-8.059397158274185513082699117148877121508121490479e-02,1.000000000000000020816681711721685132943093776703e-02
5.400000000000002575717417130363173782825469970703e-01,-3.346067169085188003352371310938906390219926834106e-02,-8.061328319275880283090174316384945996105670928955e-02,1.000000000000000020816681711721685132943093776703e-02
5.500000000000002664535259100375697016716003417969e-01,-3.353391422748965011724209261956275440752506256104e-02,-8.063289452225817777186733792404993437230587005615e-02,1.000000000000000020816681711721685132943093776703e-02
5.600000000000002753353101070388220250606536865234e-01,-3.360750018150174267539398442750098183751106262207e-02,-8.065280555019968544705477597744902595877647399902e-02,1.000000000000000020816681711721685132943093776703e-02
5.700000000000002842170943040400743484497070312500e-01,-3.368143014924083328276438464854436460882425308228e-02,-8.067301625562704747718356657060212455689907073975e-02,1.000000000000000020816681711721685132943093776703e-02
5.800000000000002930988785010413266718387603759766e-01,-3.375570472964686818961865810706513002514839172363e-02,-8.069352661765175072083877694240072742104530334473e-02,1.000000000000000020816681711721685132943093776703e-02
5.900000000000003019806626980425789952278137207031e-01,-3.383032452425566855014338329965539742261171340942e-02,-8.071433661543671311822123470847145654261112213135e-02,1.000000000000000020816681711721685132943093776703e-02
6.000000000000003108624468950438313186168670654297e-01,-3.390529013720754158978110126554383896291255950928e-02,-8.073544622817982463480745991546427831053733825684e-02,1.000000000000000020816681711721685132943093776703e-02
6.100000000000003197442310920450836420059204101562e-01,-3.398060217525586401698944882809882983565330505371e-02,-8.075685543509728003819247987848939374089241027832e-02,1.000000000000000020816681711721685132943093776703e-02
6.200000000000003286260152890463359653949737548828e-01,-3.405626124777563074053077230018971022218465805054e-02,-8.077856421540678677484237368844333104789257049561e-02,1.000000000000000020816681711721685132943093776703e-02
6.300000000000003375077994860475882887840270996094e-01,-3.413226796677200358676174118954804725944995880127e-02,-8.080057254831064794675654638922424055635929107666e-02,1.000000000000000020816681711721685132943093776703e-02
6.400000000000003463895836830488406121730804443359e-01,-3.420862294688879062798392283184512052685022354126e-02,-8.082288041297869263246411719592288136482238769531e-02,1.000000000000000020816681711721685132943093776703e-02
6.500000000000003552713678800500929355621337890625e-01,-3.428532680541694632747606874545454047620296478271e-02,-8.084548778853102579677880612507578916847705841064e-02,1.000000000000000020816681711721685132943093776703e-02
6.600000000000003641531520770513452589511871337891e-01,-3.436238016230302311226907363561622332781553268433e-02,-8.086839465402063942267574248035089112818241119385e-02,1.000000000000000020816681711721685132943093776703e-02
6.700000000000003730349362740525975823402404785156e-01,-3.443978364015760212923922267691523302346467971802e-02,-8.089160098841587098750238737920881249010562896729e-02,1.000000000000000020816681711721685132943093776703e-02
6.800000000000003819167204710538499057292938232422e-01,-3.451753786426369624562582316684711258858442306519e-02,-8.091510677058273703909918594945338554680347442627e-02,1.000000000000000020816681711721685132943093776703e-02
6.900000000000003907985046680551022291183471679688e-01,-3.459564346258514611065493227215483784675598144531e-02,-8.093891197926705860510310230893082916736602783203e-02,1.000000000000000020816681711721685132943093776703e-02
7.000000000000003996802888650563545525074005126953e-01,-3.467410106577495376711794961011037230491638183594e-02,-8.096301659307647557994869202957488596439361572266e-02,1.000000000000000020816681711721685132943093776703e-02
7.100000000000004085620730620576068758964538574219e-01,-3.475291130718363014073801764425297733396291732788e-02,-8.098742059046229457841548082797089591622352600098e-02,1.000000000000000020816681711721685132943093776703e-02
7.200000000000004174438572590588591992855072021484e-01,-3.483207482286748701838519082230050116777420043945e-02,-8.101212394970112862235822603906854055821895599365e-02,1.000000000000000020816681711721685132943093776703e-02
7.300000000000004263256414560601115226745605468750e-01,-3.491159225159693596518550862128904554992914199829e-02,-8.103712664887646743849813901761081069707870483398e-02,1.000000000000000020816681711721685132943093776703e-02
7.400000000000004352074256530613638460636138916016e-01,-3.499146423486471091379712561320047825574874877930e-02,-8.106242866585999795603356687934137880802154541016e-02,1.000000000000000020816681711721685132943093776703e-02
7.500000000000004440892098500626161694526672363281e-01,-3.507169141689411850926205715950345620512962341309e-02,-8.108802997829282765973601954101468436419963836670e-02,1.000000000000000020816681711721685132943093776703e-02
7.600000000000004529709940470638684928417205810547e-01,-3.515227444464723294270669384786742739379405975342e-02,-8.111393056356651365401688735801144503057003021240e-02,1.000000000000000020816681711721685132943093776703e-02
7.700000000000004618527782440651208162307739257812e-01,-3.523321396783306302946670029996312223374843597412e-02,-8.114013039880393907132827280292985960841178894043e-02,1.000000000000000020816681711721685132943093776703e-02
7.800000000000004707345624410663731396198272705078e-01,-3.531451063891570540942410616480628959834575653076e-02,-8.116662946084000906932232055623899213969707489014e-02,1.000000000000000020816681711721685132943093776703e-02
7.900000000000004796163466380676254630088806152344e-01,-3.539616511312246999176878148318792227655649185181e-02,-8.119342772620220805013246945236460305750370025635e-02,1.000000000000000020816681711721685132943093776703e-02
8.000000000000004884981308350688777863979339599609e-01,-3.547817804845196376639648860873421654105186462402e-02,-8.122052517109093483504977939446689561009407043457e-02,1.000000000000000020816681711721685132943093776703e-02
8.100000000000004973799150320701301097869873046875e-01,-3.556055010568215379862522240728139877319335937500e-02,-8.124792177135972681689679575356421992182731628418e-02,1.000000000000000020816681711721685132943093776703e-02
8.200000000000005062616992290713824331760406494141e-01,-3.564328194837842328501764654902217444032430648804e-02,-8.127561750249533145673552780863246880471706390381e-02,1.000000000000000020816681711721685132943093776703e-02
8.300000000000005151434834260726347565650939941406e-01,-3.572637424290155822026449072836840059608221054077e-02,-8.130361233959748634703146308311261236667633056641e-02,1.000000000000000020816681711721685132943093776703e-02
8.400000000000005240252676230738870799541473388672e-01,-3.580982765841576181964356351272726897150278091431e-02,-8.133190625735868539702977386696147732436656951904e-02,1.000000000000000020816681711721685132943093776703e-02
8.500000000000005329070518200751394033432006835938e-01,-3.589364286689657179696411049008020199835300445557e-02,-8.136049923004363970679975182065390981733798980713e-02,1.000000000000000020816681711721685132943093776703e-02
8.600000000000005417888360170763917267322540283203e-01,-3.597782054313882621476849976716039236634969711304e-02,-8.138939123146865517455239569244440644979476928711e-02,1.000000000000000020816681711721685132943093776703e-02
8.700000000000005506706202140776440501213073730469e-01,-3.606236136476453219001925276643305551260709762573e-02,-8.141858223498076030377745837540715001523494720459e-02,1.000000000000000020816681711721685132943093776703e-02
8.800000000000005595524044110788963735103607177734e-01,-3.614726601223074847757388283753243740648031234741e-02,-8.144807221343672298807803144882200285792350769043e-02,1.000000000000000020816681711721685132943093776703e-02
8.900000000000005684341886080801486968994140625000e-01,-3.623253516883742642029631042532855644822120666504e-02,-8.147786113918184525140020468825241550803184509277e-02,1.000000000000000020816681711721685132943093776703e-02
