time,u0,u1,tau
0.000000000000000000000000000000000000000000000000e+00,-5.999999999999999777955395074968691915273666381836e-02,1.999999999999999000799277837359113618731498718262e-02,1.000000000000000020816681711721685132943093776703e-02
1.000000000000000020816681711721685132943093776703e-02,-5.998876296966234450414034995446854736655950546265e-02,1.998563684590893424486424123642791528254747390747e-02,1.000000000000000020816681711721685132943093776703e-02
2.000000000000000041633363423443370265886187553406e-02,-5.997746060339877866018909458034613635390996932983e-02,1.997134667152592260586096983843162888661026954651e-02,1.000000000000000020816681711721685132943093776703e-02
2.999999999999999888977697537484345957636833190918e-02,-5.996609296927768451013207595678977668285369873047e-02,1.995712937657571559024738405696552945300936698914e-02,1.000000000000000020816681711721685132943093776703e-02
4.000000000000000083266726846886740531772375106812e-02,-5.995466013507787239600332895861356519162654876709e-02,1.994298486114633173205135108219110406935214996338e-02,1.000000000000000020816681711721685132943093776703e-02
5.000000000000000277555756156289135105907917022705e-02,-5.994316216828857873943903200597560498863458633423e-02,1.992891302568907535563980104598158504813909530640e-02,1.000000000000000020816681711721685132943093776703e-02
6.000000000000000471844785465691529680043458938599e-02,-5.993159913610945216388969924992125015705823898315e-02,1.991491377101856086184739069722127169370651245117e-02,1.000000000000000020816681711721685132943093776703e-02
7.000000000000000666133814775093924254179000854492e-02,-5.991997110545055349462018057238310575485229492188e-02,1.990098699831273354465821512349066324532032012939e-02,1.000000000000000020816681711721685132943093776703e-02
8.000000000000000166533453693773481063544750213623e-02,-5.990827814293239739207308502955129370093345642090e-02,1.988713260911287306065275970468064770102500915527e-02,1.000000000000000020816681711721685132943093776703e-02
8.999999999999999666933092612453037872910499572754e-02,-5.989652031488593847408097303741669747978448867798e-02,1.987335050532358649011399620576412416994571685791e-02,1.000000000000000020816681711721685132943093776703e-02
9.999999999999999167332731531132594682276248931885e-02,-5.988469768735263376591149153682636097073554992676e-02,1.985964058921281527592128668402438051998615264893e-02,1.000000000000000020816681711721685132943093776703e-02
1.099999999999999866773237044981215149164199829102e-01,-5.987281032608444963916127790071186609566211700439e-02,1.984600276341181093742171981375577161088585853577e-02,1.000000000000000020816681711721685132943093776703e-02
1.199999999999999816813200936849170830100774765015e-01,-5.986085829654392426180109509914473164826631546021e-02,1.983243693091511078430144721096439752727746963501e-02,1.000000000000000020816681711721685132943093776703e-02
1.299999999999999766853164828717126511037349700928e-01,-5.984884166390421617043315904993505682796239852905e-02,1.981894299508050669156311585084040416404604911804e-02,1.000000000000000020816681711721685132943093776703e-02
1.399999999999999855671006798729649744927883148193e-01,-5.983676049304914590365456206200178712606430053711e-02,1.980552085962901040505634853161609498783946037292e-02,1.000000000000000020816681711721685132943093776703e-02
1.499999999999999944488848768742172978818416595459e-01,-5.982461484857328620767802362934162374585866928101e-02,1.979217042864480149977346457035309867933392524719e-02,1.000000000000000020816681711721685132943093776703e-02
1.600000000000000033306690738754696212708950042725e-01,-5.981240479478201060858921778162766713649034500122e-02,1.977889160657517533814520049872953677549958229065e-02,1.000000000000000020816681711721685132943093776703e-02
1.700000000000000122124532708767219446599483489990e-01,-5.980013039569158361796752387817832641303539276123e-02,1.976568429823048061999557489798462484031915664673e-02,1.000000000000000020816681711721685132943093776703e-02
1.800000000000000210942374678779742680490016937256e-01,-5.978779171502925093850677740192622877657413482666e-02,1.975254840878404999360284932663489598780870437622e-02,1.000000000000000020816681711721685132943093776703e-02
1.900000000000000299760216648792265914380550384521e-01,-5.977538881623332273074211684615875128656625747681e-02,1.973948384377212372786658534096204675734043121338e-02,1.000000000000000020816681711721685132943093776703e-02
2.000000000000000388578058618804789148271083831787e-01,-5.976292176245329157424635013740044087171554565430e-02,1.972649050909375950668689370104402769356966018677e-02,1.000000000000000020816681711721685132943093776703e-02
2.100000000000000477395900588817312382161617279053e-01,-5.975039061654991573435680152215354610234498977661e-02,1.971356831101074569279063553040032275021076202393e-02,1.000000000000000020816681711721685132943093776703e-02
2.200000000000000566213742558829835616052150726318e-01,-5.973779544109535100115948580423719249665737152100e-02,1.970071715614750071376981566118047339841723442078e-02,1.000000000000000020816681711721685132943093776703e-02
2.300000000000000655031584528842358849942684173584e-01,-5.972513629837326865068547476766980253159999847412e-02,1.968793695149096203977912011851003626361489295959e-02,1.000000000000000020816681711721685132943093776703e-02
2.400000000000000743849426498854882083833217620850e-01,-5.971241325037898728389507141400827094912528991699e-02,1.967522760439047516123345360483654076233506202698e-02,1.000000000000000020816681711721685132943093776703e-02
2.500000000000000555111512312578270211815834045410e-01,-5.969962635881959772676808029245876241475343704224e-02,1.966258902255767215816462112343288026750087738037e-02,1.000000000000000020816681711721685132943093776703e-02
2.600000000000000643929354282590793445706367492676e-01,-5.968677568511410874707578955167264211922883987427e-02,1.965002111406633292234324983382975915446877479553e-02,1.000000000000000020816681711721685132943093776703e-02
2.700000000000000732747196252603316679596900939941e-01,-5.967386129039360664894076080599916167557239532471e-02,1.963752378735226372663547067531908396631479263306e-02,1.000000000000000020816681711721685132943093776703e-02
2.800000000000000821565038222615839913487434387207e-01,-5.966088323550140098960881118728138972073793411255e-02,1.962509695121314109989008045431546634063124656677e-02,1.000000000000000020816681711721685132943093776703e-02
2.900000000000000910382880192628363147377967834473e-01,-5.964784158099319111290270711833727546036243438721e-02,1.961274051480836611016655979256029240787029266357e-02,1.000000000000000020816681711721685132943093776703e-02
3.000000000000000999200722162640886381268501281738e-01,-5.963473638713723268267585808644071221351623535156e-02,1.960045438765890477017528326086903689429163932800e-02,1.000000000000000020816681711721685132943093776703e-02
3.100000000000001088018564132653409615159034729004e-01,-5.962156771391451115515991432403097860515117645264e-02,1.958823847964711803437687365203601075336337089539e-02,1.000000000000000020816681711721685132943093776703e-02
3.200000000000001176836406102665932849049568176270e-01,-5.960833562101893606799407621110731270164251327515e-02,1.957609270101659526552850820735329762101173400879e-02,1.000000000000000020816681711721685132943093776703e-02
3.300000000000001265654248072678456082940101623535e-01,-5.959504016785752839036049977039510849863290786743e-02,1.956401696237197035399546507505874615162611007690e-02,1.000000000000000020816681711721685132943093776703e-02
3.400000000000001354472090042690979316830635070801e-01,-5.958168141355060093422579825528373476117849349976e-02,1.955201117467873783706266976878396235406398773193e-02,1.000000000000000020816681711721685132943093776703e-02
3.500000000000001443289932012703502550721168518066e-01,-5.956825941693198733783987108836299739778041839600e-02,1.954007524926305514045843381154554663226008415222e-02,1.000000000000000020816681711721685132943093776703e-02
3.600000000000001532107773982716025784611701965332e-01,-5.955477423654922247697740544936095830053091049194e-02,1.952820909781154481987819337973633082583546638489e-02,1.000000000000000020816681711721685132943093776703e-02
3.700000000000001620925615952728549018502235412598e-01,-5.954122593066378532622451302813715301454067230225e-02,1.951641263237108292472044013265985995531082153320e-02,1.000000000000000020816681711721685132943093776703e-02
3.800000000000001709743457922741072252392768859863e-01,-5.952761455725130712579584724153392016887664794922e-02,1.950468576534858736182265204206487396731972694397e-02,1.000000000000000020816681711721685132943093776703e-02
3.900000000000001798561299892753595486283302307129e-01,-5.951394017400180730392733607914124149829149246216e-02,1.949302840951078891196246445360884536057710647583e-02,1.000000000000000020816681711721685132943093776703e-02
4.000000000000001887379141862766118720173835754395e-01,-5.950020283831991552148110713460482656955718994141e-02,1.948144047798401265469969700916408328339457511902e-02,1.000000000000000020816681711721685132943093776703e-02
4.100000000000001976196983832778641954064369201660e-01,-5.948640260732513534991383608030446339398622512817e-02,1.946992188425393510708971689382451586425304412842e-02,1.000000000000000020816681711721685132943093776703e-02
4.200000000000002065014825802791165187954902648926e-01,-5.947253953785208019366947951311885844916105270386e-02,1.945847254216534483184375403652666136622428894043e-02,1.000000000000000020816681711721685132943093776703e-02
4.300000000000002153832667772803688421845436096191e-01,-5.945861368645073002925371952187560964375734329224e-02,1.944709236592188569825445654259965522214770317078e-02,1.000000000000000020816681711721685132943093776703e-02
4.400000000000002242650509742816211655735969543457e-01,-5.944462510938668814430840825480117928236722946167e-02,1.943578127008580708201535003354365471750497817993e-02,1.000000000000000020816681711721685132943093776703e-02
4.500000000000002331468351712828734889626502990723e-01,-5.943057386264146563226162811588437762111425399780e-02,1.942453916957770365669944112596567720174789428711e-02,1.000000000000000020816681711721685132943093776703e-02
4.600000000000002420286193682841258123517036437988e-01,-5.941646000191274507029604023955471348017454147339e-02,1.941336597967623436855610918883030535653233528137e-02,1.000000000000000020816681711721685132943093776703e-02
4.700000000000002509104035652853781357407569885254e-01,-5.940228358261465113621113687258912250399589538574e-02,1.940226161601785528909580591516714775934815406799e-02,1.000000000000000020816681711721685132943093776703e-02
4.800000000000002597921877622866304591298103332520e-01,-5.938804465987806285864891719938896130770444869995e-02,1.939122599459653512043999512570735532790422439575e-02,1.000000000000000020816681711721685132943093776703e-02
4.900000000000002686739719592878827825188636779785e-01,-5.937374328855088423395613972388673573732376098633e-02,1.938025903176346029233023671167757129296660423279e-02,1.000000000000000020816681711721685132943093776703e-02
5.000000000000002220446049250313080847263336181641e-01,-5.935937952319835647640999809482309501618146896362e-02,1.936936064422674352858422253120806999504566192627e-02,1.000000000000000020816681711721685132943093776703e-02
5.100000000000002309263891220325604081153869628906e-01,-5.934495341810335639065598911656707059592008590698e-02,1.935853074905111159687010058405576273798942565918e-02,1.000000000000000020816681711721685132943093776703e-02
5.200000000000002398081733190338127315044403076172e-01,-5.933046502726672249972139638884982559829950332642e-02,1.934776926365761040571555895439814776182174682617e-02,1.000000000000000020816681711721685132943093776703e-02
5.300000000000002486899575160350650548934936523438e-01,-5.931591440440756035634706222481327131390571594238e-02,1.933707610582327193760043826387118315324187278748e-02,1.000000000000000020816681711721685132943093776703e-02
5.400000000000002575717417130363173782825469970703e-01,-5.930130160296356867100087129074381664395332336426e-02,1.932645119368080546817800779990648152306675910950e-02,1.000000000000000020816681711721685132943093776703e-02
5.500000000000002664535259100375697016716003417969e-01,-5.928662667609137237878513815303449518978595733643e-02,1.931589444571825409102672210792661644518375396729e-02,1.000000000000000020816681711721685132943093776703e-02
5.600000000000002753353101070388220250606536865234e-01,-5.927188967666686958413180263960384763777256011963e-02,1.930540578077867205908368930522556183859705924988e-02,1.000000000000000020816681711721685132943093776703e-02
5.700000000000002842170943040400743484497070312500e-01,-5.925709065728555768881591347962967120110988616943e-02,1.929498511805977090105557181232143193483352661133e-02,1.000000000000000020816681711721685132943093776703e-02
5.800000000000002930988785010413266718387603759766e-01,-5.924222967026289421443863147942465730011463165283e-02,1.928463237711357594617034294515178771689534187317e-02,1.000000000000000020816681711721685132943093776703e-02
5.900000000000003019806626980425789952278137207031e-01,-5.922730676763465762491023269831202924251556396484e-02,1.927434747784607244058818764642637688666582107544e-02,1.000000000000000020816681711721685132943093776703e-02
6.000000000000003108624468950438313186168670654297e-01,-5.921232200115729427114530381004442460834980010986e-02,1.926413034051684125547154735613730736076831817627e-02,1.000000000000000020816681711721685132943093776703e-02
6.100000000000003197442310920450836420059204101562e-01,-5.919727542230829309133355309313628822565078735352e-02,1.925398088573868418671430902122665429487824440002e-02,1.000000000000000020816681711721685132943093776703e-02
6.200000000000003286260152890463359653949737548828e-01,-5.918216708228656725010452532842464279383420944214e-02,1.924389903447726313245880191971082240343093872070e-02,1.000000000000000020816681711721685132943093776703e-02
6.300000000000003375077994860475882887840270996094e-01,-5.916699703201282883879841278940148185938596725464e-02,1.923388470805070457614327494866302004083991050720e-02,1.000000000000000020816681711721685132943093776703e-02
6.400000000000003463895836830488406121730804443359e-01,-5.915176532212996357573686623254616279155015945435e-02,1.922393782812922141678413368026667740195989608765e-02,1.000000000000000020816681711721685132943093776703e-02
6.500000000000003552713678800500929355621337890625e-01,-5.913647200300343326206942151657131034880876541138e-02,1.921405831673471745202341764979792060330510139465e-02,1.000000000000000020816681711721685132943093776703e-02
6.600000000000003641531520770513452589511871337891e-01,-5.912111712472168517651383012889709789305925369263e-02,1.920424609624038492228237373637966811656951904297e-02,1.000000000000000020816681711721685132943093776703e-02
6.700000000000003730349362740525975823402404785156e-01,-5.910570073709654065341467799044039566069841384888e-02,1.919450108937029858546807759012153837829828262329e-02,1.000000000000000020816681711721685132943093776703e-02
6.800000000000003819167204710538499057292938232422e-01,-5.909022288966361141637761988931742962449789047241e-02,1.918482321919900632223310310564556857571005821228e-02,1.000000000000000020816681711721685132943093776703e-02
6.900000000000003907985046680551022291183471679688e-01,-5.907468363168270203411580610008968506008386611938e-02,1.917521240915110586344738408115517813712358474731e-02,1.000000000000000020816681711721685132943093776703e-02
7.000000000000003996802888650563545525074005126953e-01,-5.905908301213825400965973244638007599860429763794e-02,1.916566858300082498711702783111832104623317718506e-02,1.000000000000000020816681711721685132943093776703e-02
7.100000000000004085620730620576068758964538574219e-01,-5.904342107973976211399147473457560408860445022583e-02,1.915619166487158089862141707726550521329045295715e-02,1.000000000000000020816681711721685132943093776703e-02
7.200000000000004174438572590588591992855072021484e-01,-5.902769788292221153636063490921515040099620819092e-02,1.914678157923555695818507160765875596553087234497e-02,1.000000000000000020816681711721685132943093776703e-02
7.300000000000004263256414560601115226745605468750e-01,-5.901191346984651503460028720837726723402738571167e-02,1.913743825091324818332694235323288012295961380005e-02,1.000000000000000020816681711721685132943093776703e-02
7.400000000000004352074256530613638460636138916016e-01,-5.899606788839995702433682822629634756594896316528e-02,1.912816160507301715965056132517929654568433761597e-02,1.000000000000000020816681711721685132943093776703e-02
7.500000000000004440892098500626161694526672363281e-01,-5.898016118619664460709373088320717215538024902344e-02,1.911895156723062913495247983064473373815417289734e-02,1.000000000000000020816681711721685132943093776703e-02
7.600000000000004529709940470638684928417205810547e-01,-5.896419341057797247618310620964621193706989288330e-02,1.910980806324880446056546645650087157264351844788e-02,1.000000000000000020816681711721685132943093776703e-02
7.700000000000004618527782440651208162307739257812e-01,-5.894816460861308088370336122352455276995897293091e-02,1.910073101933673980767913747058628359809517860413e-02,1.000000000000000020816681711721685132943093776703e-02
7.800000000000004707345624410663731396198272705078e-01,-5.893207482709932748532466462165757548063993453979e-02,1.909172036204963979200144308379094582051038742065e-02,1.000000000000000020816681711721685132943093776703e-02
7.900000000000004796163466380676254630088806152344e-01,-5.891592411256275224618050856406625825911760330200e-02,1.908277601828823125118539394406980136409401893616e-02,1.000000000000000020816681711721685132943093776703e-02
8.000000000000004884981308350688777863979339599609e-01,-5.889971251125857704122878999442036729305982589722e-02,1.907389791529828099170273958407051395624876022339e-02,1.000000000000000020816681711721685132943093776703e-02
8.100000000000004973799150320701301097869873046875e-01,-5.888344006917167750003727633156813681125640869141e-02,1.906508598067010659682374296153284376487135887146e-02,1.000000000000000020816681711721685132943093776703e-02
8.200000000000005062616992290713824331760406494141e-01,-5.886710683201706872935687897552270442247390747070e-02,1.905634014233806988736219523161707911640405654907e-02,1.000000000000000020816681711721685132943093776703e-02
8.300000000000005151434834260726347565650939941406e-01,-5.885071284524043266905835025681881234049797058105e-02,1.904766032858008426020823833368922350928187370300e-02,1.000000000000000020816681711721685132943093776703e-02
8.400000000000005240252676230738870799541473388672e-01,-5.883425815401858299802384522081410977989435195923e-02,1.903904646801709080183861999557848321273922920227e-02,1.000000000000000020816681711721685132943093776703e-02
8.500000000000005329070518200751394033432006835938e-01,-5.881774280326001330676533029873098712414503097534e-02,1.903049848961255521850866045951988780871033668518e-02,1.000000000000000020816681711721685132943093776703e-02
8.600000000000005417888360170763917267322540283203e-01,-5.880116683760537588110395290641463361680507659912e-02,1.902201632267193701086860357918340014293789863586e-02,1.000000000000000020816681711721685132943093776703e-02
8.700000000000005506706202140776440501213073730469e-01,-5.878453030142802987478845011537487152963876724243e-02,1.901359989684216905692082377754559274762868881226e-02,1.000000000000000020816681711721685132943093776703e-02
8.800000000000005595524044110788963735103607177734e-01,-5.876783323883456172653794169491447973996400833130e-02,1.900524914211111637829532128307619132101535797119e-02,1.000000000000000020816681711721685132943093776703e-02
8.900000000000005684341886080801486968994140625000e-01,-5.875107569366530557708472315425751730799674987793e-02,1.899696398880703837597216931953880703076720237732e-02,1.000000000000000020816681711721685132943093776703e-02
