time,u0,u1,tau
0.000000000000000000000000000000000000000000000000e+00,-1.800000000000000210942374678779742680490016937256e-01,0.000000000000000000000000000000000000000000000000e+00,1.000000000000000020816681711721685132943093776703e-02
1.000000000000000020816681711721685132943093776703e-02,-1.799999935204160406154727525063208304345607757568e-01,1.612802585324237957149773325937758272630162537098e-04,1.000000000000000020816681711721685132943093776703e-02
2.000000000000000041633363423443370265886187553406e-02,-1.799997126025022209372394854653975926339626312256e-01,3.225620676418176902000567451977985911071300506592e-04,1.000000000000000020816681711721685132943093776703e-02
2.999999999999999888977697537484345957636833190918e-02,-1.799991560349898933601764383638510480523109436035e-01,4.838460542693508018886883181863822755985893309116e-04,1.000000000000000020816681711721685132943093776703e-02
4.000000000000000083266726846886740531772375106812e-02,-1.799983226064681141043166689996724016964435577393e-01,6.451328411531192467270878765361885598395019769669e-04,1.000000000000000020816681711721685132943093776703e-02
5.000000000000000277555756156289135105907917022705e-02,-1.799972111054077561487218872571247629821300506592e-01,8.064230468340624667991645146969403867842629551888e-04,1.000000000000000020816681711721685132943093776703e-02
6.000000000000000471844785465691529680043458938599e-02,-1.799958203201857398489948991482378914952278137207e-01,9.677172856619541520609151241671952448086813092232e-04,1.000000000000000020816681711721685132943093776703e-02
7.000000000000000666133814775093924254179000854492e-02,-1.799941490391090970213383570808218792080879211426e-01,1.129016167801469598327979149132715974701568484306e-03,1.000000000000000020816681711721685132943093776703e-02
8.000000000000000166533453693773481063544750213623e-02,-1.799921960504392570712184351577889174222946166992e-01,1.290320299238328959415267327415222098352387547493e-03,1.000000000000000020816681711721685132943093776703e-02
8.999999999999999666933092612453037872910499572754e-02,-1.799899601424162776108772732186480425298213958740e-01,1.451630281785517640261162775061620777705684304237e-03,1.000000000000000020816681711721685132943093776703e-02
9.999999999999999167332731531132594682276248931885e-02,-1.799874401032832138547234990255674347281455993652e-01,1.612946713089584861028358275802929711062461137772e-03,1.000000000000000020816681711721685132943093776703e-02
1.099999999999999866773237044981215149164199829102e-01,-1.799846347213103769924202879337826743721961975098e-01,1.774270186637021042702633266685552371200174093246e-03,1.000000000000000020816681711721685132943093776703e-02
1.199999999999999816813200936849170830100774765015e-01,-1.799815427848197313398515007065725512802600860596e-01,1.935601291760714014189570519874905585311353206635e-03,1.000000000000000020816681711721685132943093776703e-02
1.299999999999999766853164828717126511037349700928e-01,-1.799781630822094025123902838458889164030551910400e-01,2.096940613646484583010298763383616460487246513367e-03,1.000000000000000020816681711721685132943093776703e-02
1.399999999999999855671006798729649744927883148193e-01,-1.799744944019780190647139761495054699480533599854e-01,2.258288733339704722202778697237590677104890346527e-03,1.000000000000000020816681711721685132943093776703e-02
1.499999999999999944488848768742172978818416595459e-01,-1.799705355327492761752239402994746342301368713379e-01,2.419646227751994470300811457263989723287522792816e-03,1.000000000000000020816681711721685132943093776703e-02
1.600000000000000033306690738754696212708950042725e-01,-1.799662852632964715748897788216709159314632415771e-01,2.581013669668003399082500948225060710683465003967e-03,1.000000000000000020816681711721685132943093776703e-02
1.700000000000000122124532708767219446599483489990e-01,-1.799617423825670692316691656742477789521217346191e-01,2.742391627752272745960349098481856344733387231827e-03,1.000000000000000020816681711721685132943093776703e-02
1.800000000000000210942374678779742680490016937256e-01,-1.799569056797072630349276778360945172607898712158e-01,2.903780666556182547821673978205581079237163066864e-03,1.000000000000000020816681711721685132943093776703e-02
1.900000000000000299760216648792265914380550384521e-01,-1.799517739440867070133123206687741912901401519775e-01,3.065181346524980740553267821724148234352469444275e-03,1.000000000000000020816681711721685132943093776703e-02
2.000000000000000388578058618804789148271083831787e-01,-1.799463459653231067747469751338940113782882690430e-01,3.226594224004899428420722884425231313798576593399e-03,1.000000000000000020816681711721685132943093776703e-02
2.100000000000000477395900588817312382161617279053e-01,-1.799406205333070329910327700417838059365749359131e-01,3.388019851250354420174604186399847094435244798660e-03,1.000000000000000020816681711721685132943093776703e-02
2.200000000000000566213742558829835616052150726318e-01,-1.799345964382265961045703761556069366633892059326e-01,3.549458776431231935011290090642432915046811103821e-03,1.000000000000000020816681711721685132943093776703e-02
2.300000000000000655031584528842358849942684173584e-01,-1.799282724705922598129603784400387667119503021240e-01,3.710911543640262044707611721605644561350345611572e-03,1.000000000000000020816681711721685132943093776703e-02
2.400000000000000743849426498854882083833217620850e-01,-1.799216474212616267980280326810316182672977447510e-01,3.872378692900478418248422229908101144246757030487e-03,1.000000000000000020816681711721685132943093776703e-02
2.500000000000000555111512312578270211815834045410e-01,-1.799147200814643077215748689923202618956565856934e-01,4.033860760172766103670571880002171383239328861237e-03,1.000000000000000020816681711721685132943093776703e-02
2.600000000000000643929354282590793445706367492676e-01,-1.799074892428268734878571422086679376661777496338e-01,4.195358277363499081846764937608895706944167613983e-03,1.000000000000000020816681711721685132943093776703e-02
2.700000000000000732747196252603316679596900939941e-01,-1.798999536973976132170349728767178021371364593506e-01,4.356871772332267592209298356920044170692563056946e-03,1.000000000000000020816681711721685132943093776703e-02
2.800000000000000821565038222615839913487434387207e-01,-1.798921122376716530411044914217200130224227905273e-01,4.518401768899690459924123331347800558432936668396e-03,1.000000000000000020816681711721685132943093776703e-02
2.900000000000000910382880192628363147377967834473e-01,-1.798839636566157973440738260251237079501152038574e-01,4.679948786855325434941299533875280758365988731384e-03,1.000000000000000020816681711721685132943093776703e-02
3.000000000000000999200722162640886381268501281738e-01,-1.798755067476936198023196311623905785381793975830e-01,4.841513341965664532495772220954677322879433631897e-03,1.000000000000000020816681711721685132943093776703e-02
3.100000000000001088018564132653409615159034729004e-01,-1.798667403048904156470655379962408915162086486816e-01,5.003095945982223048675852083988502272404730319977e-03,1.000000000000000020816681711721685132943093776703e-02
3.200000000000001176836406102665932849049568176270e-01,-1.798576631227383204603142985433805733919143676758e-01,5.164697106649721383697659859990380937233567237854e-03,1.000000000000000020816681711721685132943093776703e-02
3.300000000000001265654248072678456082940101623535e-01,-1.798482739963414012152043142123147845268249511719e-01,5.326317327714359672885535701425396837294101715088e-03,1.000000000000000020816681711721685132943093776703e-02
3.400000000000001354472090042690979316830635070801e-01,-1.798385717214007750719417799700750038027763366699e-01,5.487957108932185225358413305229987599886953830719e-03,1.000000000000000020816681711721685132943093776703e-02
3.500000000000001443289932012703502550721168518066e-01,-1.798285550942396726625815972511190921068191528320e-01,5.649616946077554505145634777818486327305436134338e-03,1.000000000000000020816681711721685132943093776703e-02
3.600000000000001532107773982716025784611701965332e-01,-1.798182229118287234204132118975394405424594879150e-01,5.811297330951689654732206236076308414340019226074e-03,1.000000000000000020816681711721685132943093776703e-02
3.700000000000001620925615952728549018502235412598e-01,-1.798075739718110466203171426968765445053577423096e-01,5.972998751391330428395232132743331021629273891449e-03,1.000000000000000020816681711721685132943093776703e-02
3.800000000000001709743457922741072252392768859863e-01,-1.797966070725275367081508193223271518945693969727e-01,6.134721691277481535331528306187465204857289791107e-03,1.000000000000000020816681711721685132943093776703e-02
3.900000000000001798561299892753595486283302307129e-01,-1.797853210130420376078319577572983689606189727783e-01,6.296466630544257127299889731375515111722052097321e-03,1.000000000000000020816681711721685132943093776703e-02
4.000000000000001887379141862766118720173835754395e-01,-1.797737145931667113174512451223563402891159057617e-01,6.458234045187820696054536995234229834750294685364e-03,1.000000000000000020816681711721685132943093776703e-02
4.100000000000001976196983832778641954064369201660e-01,-1.797617866134871844607800994708668440580368041992e-01,6.620024407275424717378431438419283949770033359528e-03,1.000000000000000020816681711721685132943093776703e-02
4.200000000000002065014825802791165187954902648926e-01,-1.797495358753879446389589702448574826121330261230e-01,6.781838184954546572269507009877997916191816329956e-03,1.000000000000000020816681711721685132943093776703e-02
4.300000000000002153832667772803688421845436096191e-01,-1.797369611810776257598831762152258306741714477539e-01,6.943675842462123347365032799416439956985414028168e-03,1.000000000000000020816681711721685132943093776703e-02
4.400000000000002242650509742816211655735969543457e-01,-1.797240613336144043898912059376016259193420410156e-01,7.105537840133887249327582225078003830276429653168e-03,1.000000000000000020816681711721685132943093776703e-02
4.500000000000002331468351712828734889626502990723e-01,-1.797108351369312573275749400636414065957069396973e-01,7.267424634413797296383918933315726462751626968384e-03,1.000000000000000020816681711721685132943093776703e-02
4.600000000000002420286193682841258123517036437988e-01,-1.796972813958614412221947986836312338709831237793e-01,7.429336677863575093272441307590270298533141613007e-03,1.000000000000000020816681711721685132943093776703e-02
4.700000000000002509104035652853781357407569885254e-01,-1.796833989161638334142168105245218612253665924072e-01,7.591274419172339485428757654972287127748131752014e-03,1.000000000000000020816681711721685132943093776703e-02
4.800000000000002597921877622866304591298103332520e-01,-1.796691865045483560425765290347044356167316436768e-01,7.753238303166340959771130059152710600756108760834e-03,1.000000000000000020816681711721685132943093776703e-02
4.900000000000002686739719592878827825188636779785e-01,-1.796546429687014279075185640976997092366218566895e-01,7.915228770818800996256214830282260663807392120361e-03,1.000000000000000020816681711721685132943093776703e-02
5.000000000000002220446049250313080847263336181641e-01,-1.796397671173113608222848824880202300846576690674e-01,8.077246259259849431311195644411782268434762954712e-03,1.000000000000000020816681711721685132943093776703e-02
5.100000000000002309263891220325604081153869628906e-01,-1.796245577600938392315299552137730643153190612793e-01,8.239291201786569374121427244972437620162963867188e-03,1.000000000000000020816681711721685132943093776703e-02
5.200000000000002398081733190338127315044403076172e-01,-1.796090137078173998297359048592625185847282409668e-01,8.401364027873142736879685799067374318838119506836e-03,1.000000000000000020816681711721685132943093776703e-02
5.300000000000002486899575160350650548934936523438e-01,-1.795931337723288279129008060408523306250572204590e-01,8.563465163181096378997025908574869390577077865601e-03,1.000000000000000020816681711721685132943093776703e-02
5.400000000000002575717417130363173782825469970703e-01,-1.795769167665787757748319108941359445452690124512e-01,8.725595029569658406254362148501968476921319961548e-03,1.000000000000000020816681711721685132943093776703e-02
5.500000000000002664535259100375697016716003417969e-01,-1.795603615046471313032583339008851908147335052490e-01,8.887754045106213349192181283342506503686308860779e-03,1.000000000000000020816681711721685132943093776703e-02
5.600000000000002753353101070388220250606536865234e-01,-1.795434668017686086205486617473070509731769561768e-01,9.049942624076868363802716999089170712977647781372e-03,1.000000000000000020816681711721685132943093776703e-02
5.700000000000002842170943040400743484497070312500e-01,-1.795262314743582277021261006666463799774646759033e-01,9.212161176997118311460255313249945174902677536011e-03,1.000000000000000020816681711721685132943093776703e-02
5.800000000000002930988785010413266718387603759766e-01,-1.795086543400368495060348550396156497299671173096e-01,9.374410110622620126430426523711503250524401664734e-03,1.000000000000000020816681711721685132943093776703e-02
5.900000000000003019806626980425789952278137207031e-01,-1.794907342176566555913552747369976714253425598145e-01,9.536689827960073001511531742835359182208776473999e-03,1.000000000000000020816681711721685132943093776703e-02
6.000000000000003108624468950438313186168670654297e-01,-1.794724699273267387589214649779023602604866027832e-01,9.699000728278206126531379993593873223289847373962e-03,1.000000000000000020816681711721685132943093776703e-02
6.100000000000003197442310920450836420059204101562e-01,-1.794538602904386104253120493012829683721065521240e-01,9.861343207118873979699635867746110307052731513977e-03,1.000000000000000020816681711721685132943093776703e-02
6.200000000000003286260152890463359653949737548828e-01,-1.794349041296917079968409325374523177742958068848e-01,1.002371765630825570236872579243936343118548393250e-02,1.000000000000000020816681711721685132943093776703e-02
6.300000000000003375077994860475882887840270996094e-01,-1.794156002691189855102749106663395650684833526611e-01,1.018612446396816549609720681246471940539777278900e-02,1.000000000000000020816681711721685132943093776703e-02
6.400000000000003463895836830488406121730804443359e-01,-1.793959475341123932512488181600929237902164459229e-01,1.034856401452746710312169398093828931450843811035e-02,1.000000000000000020816681711721685132943093776703e-02
6.500000000000003552713678800500929355621337890625e-01,-1.793759447514484683949831378413364291191101074219e-01,1.051103668873360451330167819605776458047330379486e-02,1.000000000000000020816681711721685132943093776703e-02
6.600000000000003641531520770513452589511871337891e-01,-1.793555907493138423802747638546861708164215087891e-01,1.067354286366423501974942666947754332795739173889e-02,1.000000000000000020816681711721685132943093776703e-02
6.700000000000003730349362740525975823402404785156e-01,-1.793348843573307760390633802671800367534160614014e-01,1.083608291273897503148582188714499352499842643738e-02,1.000000000000000020816681711721685132943093776703e-02
6.800000000000003819167204710538499057292938232422e-01,-1.793138244065826669704222240397939458489418029785e-01,1.099865720573125343895171113217656966298818588257e-02,1.000000000000000020816681711721685132943093776703e-02
6.900000000000003907985046680551022291183471679688e-01,-1.792924097296396401812756948856986127793788909912e-01,1.116126610878027253237476656977378297597169876099e-02,1.000000000000000020816681711721685132943093776703e-02
7.000000000000003996802888650563545525074005126953e-01,-1.792706391605840277048145026128622703254222869873e-01,1.132390998440309035077966370863578049466013908386e-02,1.000000000000000020816681711721685132943093776703e-02
7.100000000000004085620730620576068758964538574219e-01,-1.792485115350358204633351988377398811280727386475e-01,1.148658919150679844078943858676211675629019737244e-02,1.000000000000000020816681711721685132943093776703e-02
7.200000000000004174438572590588591992855072021484e-01,-1.792260256901782866645334024724434129893779754639e-01,1.164930408540082278079363931055922876112163066864e-02,1.000000000000000020816681711721685132943093776703e-02
7.300000000000004263256414560601115226745605468750e-01,-1.792031804647833681531921001806040294468402862549e-01,1.181205501780932705380156022556548123247921466827e-02,1.000000000000000020816681711721685132943093776703e-02
7.400000000000004352074256530613638460636138916016e-01,-1.791799746992372432963236406067153438925743103027e-01,1.197484233688373908566227044047991512343287467957e-02,1.000000000000000020816681711721685132943093776703e-02
7.500000000000004440892098500626161694526672363281e-01,-1.791564072355657233348580348319956101477146148682e-01,1.213766638721537269307582107558118877932429313660e-02,1.000000000000000020816681711721685132943093776703e-02
7.600000000000004529709940470638684928417205810547e-01,-1.791324769174597597576337193459039553999900817871e-01,1.230052750984817616641819881806441117078065872192e-02,1.000000000000000020816681711721685132943093776703e-02
7.700000000000004618527782440651208162307739257812e-01,-1.791081825903008961642370877598295919597148895264e-01,1.246342604229158657069831406261073425412178039551e-02,1.000000000000000020816681711721685132943093776703e-02
7.800000000000004707345624410663731396198272705078e-01,-1.790835231011866646166907912629540078341960906982e-01,1.262636231853349853826440352122517651878297328949e-02,1.000000000000000020816681711721685132943093776703e-02
7.900000000000004796163466380676254630088806152344e-01,-1.790584972989560375022932703359401784837245941162e-01,1.278933666905334234908941937192139448598027229309e-02,1.000000000000000020816681711721685132943093776703e-02
8.000000000000004884981308350688777863979339599609e-01,-1.790331040342147961297314395778812468051910400391e-01,1.295234942083528170697626080709596863016486167908e-02,1.000000000000000020816681711721685132943093776703e-02
8.100000000000004973799150320701301097869873046875e-01,-1.790073421593609548363446037910762242972850799561e-01,1.311540089738151733389504016713544842787086963654e-02,1.000000000000000020816681711721685132943093776703e-02
8.200000000000005062616992290713824331760406494141e-01,-1.789812105286100185619346802923246286809444427490e-01,1.327849141872571199496366745052000624127686023712e-02,1.000000000000000020816681711721685132943093776703e-02
8.300000000000005151434834260726347565650939941406e-01,-1.789547079980204624671813462555292062461376190186e-01,1.344162130144651787211351745554566150531172752380e-02,1.000000000000000020816681711721685132943093776703e-02
8.400000000000005240252676230738870799541473388672e-01,-1.789278334255189339963010297651635482907295227051e-01,1.360479085868123230729231920577149139717221260071e-02,1.000000000000000020816681711721685132943093776703e-02
8.500000000000005329070518200751394033432006835938e-01,-1.789005856709256214731595946432207711040973663330e-01,1.376800040013955762907560398389250622130930423737e-02,1.000000000000000020816681711721685132943093776703e-02
8.600000000000005417888360170763917267322540283203e-01,-1.788729635959794839195069471315946429967880249023e-01,1.393125023211747547102756783488075598143041133881e-02,1.000000000000000020816681711721685132943093776703e-02
8.700000000000005506706202140776440501213073730469e-01,-1.788449660643635086287872582033742219209671020508e-01,1.409454065751124078598177646881595137529075145721e-02,1.000000000000000020816681711721685132943093776703e-02
8.800000000000005595524044110788963735103607177734e-01,-1.788165919417299132287979546163114719092845916748e-01,1.425787197583148514790085670256303274072706699371e-02,1.000000000000000020816681711721685132943093776703e-02
8.900000000000005684341886080801486968994140625000e-01,-1.787878400957253754999243255952023901045322418213e-01,1.442124448321743801493255432433215901255607604980e-02,1.000000000000000020816681711721685132943093776703e-02
