time,u0,tau
0.000000000000000000000000000000000000000000000000e+00,5.000000000000000000000000000000000000000000000000e-01,1.000000000000000020816681711721685132943093776703e-02
1.000000000000000020816681711721685132943093776703e-02,5.100999983263858617021924146683886647224426269531e-01,1.000000000000000020816681711721685132943093776703e-02
2.000000000000000041633363423443370265886187553406e-02,5.203999731192798794410236951080150902271270751953e-01,1.000000000000000020816681711721685132943093776703e-02
2.999999999999999888977697537484345957636833190918e-02,5.308998633773859276985263022652361541986465454102e-01,1.000000000000000020816681711721685132943093776703e-02
4.000000000000000083266726846886740531772375106812e-02,5.415995664960299160739509716222528368234634399414e-01,1.000000000000000020816681711721685132943093776703e-02
5.000000000000000277555756156289135105907917022705e-02,5.524989374640939532312700066540855914354324340820e-01,1.000000000000000020816681711721685132943093776703e-02
6.000000000000000471844785465691529680043458938599e-02,5.635977880607332402007614291505888104438781738281e-01,1.000000000000000020816681711721685132943093776703e-02
7.000000000000000666133814775093924254179000854492e-02,5.748958860525120728723891261324752122163772583008e-01,1.000000000000000020816681711721685132943093776703e-02
8.000000000000000166533453693773481063544750213623e-02,5.863929543916149844662299983610864728689193725586e-01,1.000000000000000020816681711721685132943093776703e-02
8.999999999999999666933092612453037872910499572754e-02,5.980886704158132616271359438542276620864868164062e-01,1.000000000000000020816681711721685132943093776703e-02
9.999999999999999167332731531132594682276248931885e-02,6.099826650508863856714469875441864132881164550781e-01,1.000000000000000020816681711721685132943093776703e-02
1.099999999999999866773237044981215149164199829102e-01,6.220745220162197108848545212822500616312026977539e-01,1.000000000000000020816681711721685132943093776703e-02
1.199999999999999816813200936849170830100774765015e-01,6.343637770343216741864011964935343712568283081055e-01,1.000000000000000020816681711721685132943093776703e-02
1.299999999999999766853164828717126511037349700928e-01,6.468499170450233703988374145410489290952682495117e-01,1.000000000000000020816681711721685132943093776703e-02
1.399999999999999855671006798729649744927883148193e-01,6.595323794251439775138123877695761620998382568359e-01,1.000000000000000020816681711721685132943093776703e-02
1.499999999999999944488848768742172978818416595459e-01,6.724105512144277208008702473307494074106216430664e-01,1.000000000000000020816681711721685132943093776703e-02
1.600000000000000033306690738754696212708950042725e-01,6.854837683485744959099861262075137346982955932617e-01,1.000000000000000020816681711721685132943093776703e-02
1.700000000000000122124532708767219446599483489990e-01,6.987513149002090306893819615652319043874740600586e-01,1.000000000000000020816681711721685132943093776703e-02
1.800000000000000210942374678779742680490016937256e-01,7.122124223286504518526385254517663270235061645508e-01,1.000000000000000020816681711721685132943093776703e-02
1.900000000000000299760216648792265914380550384521e-01,7.258662687393636625543535956239793449640274047852e-01,1.000000000000000020816681711721685132943093776703e-02
2.000000000000000388578058618804789148271083831787e-01,7.397119781539913674350827932357788085937500000000e-01,1.000000000000000020816681711721685132943093776703e-02
2.100000000000000477395900588817312382161617279053e-01,7.537486197918836783316010041744448244571685791016e-01,1.000000000000000020816681711721685132943093776703e-02
2.200000000000000566213742558829835616052150726318e-01,7.679752073640578879931695155391935259103775024414e-01,1.000000000000000020816681711721685132943093776703e-02
2.300000000000000655031584528842358849942684173584e-01,7.823906983805389847574929262918885797262191772461e-01,1.000000000000000020816681711721685132943093776703e-02
2.400000000000000743849426498854882083833217620850e-01,7.969939934720444707494380054413340985774993896484e-01,1.000000000000000020816681711721685132943093776703e-02
2.500000000000000555111512312578270211815834045410e-01,8.117839357269944766670732860802672803401947021484e-01,1.000000000000000020816681711721685132943093776703e-02
2.600000000000000643929354282590793445706367492676e-01,8.267593100448387133383221225813031196594238281250e-01,1.000000000000000020816681711721685132943093776703e-02
2.700000000000000732747196252603316679596900939941e-01,8.419188425067086756214962406374979764223098754883e-01,1.000000000000000020816681711721685132943093776703e-02
2.800000000000000821565038222615839913487434387207e-01,8.572611997644110637395442608976736664772033691406e-01,1.000000000000000020816681711721685132943093776703e-02
2.900000000000000910382880192628363147377967834473e-01,8.727849884487935971932870415912475436925888061523e-01,1.000000000000000020816681711721685132943093776703e-02
3.000000000000000999200722162640886381268501281738e-01,8.884887545985217238708742115704808384180068969727e-01,1.000000000000000020816681711721685132943093776703e-02
3.100000000000001088018564132653409615159034729004e-01,9.043709831103144969333129665756132453680038452148e-01,1.000000000000000020816681711721685132943093776703e-02
3.200000000000001176836406102665932849049568176270e-01,9.204300972116963297509073527180589735507965087891e-01,1.000000000000000020816681711721685132943093776703e-02
3.300000000000001265654248072678456082940101623535e-01,9.366644579573268902805693869595415890216827392578e-01,1.000000000000000020816681711721685132943093776703e-02
3.400000000000001354472090042690979316830635070801e-01,9.530723637499777245452037277573253959417343139648e-01,1.000000000000000020816681711721685132943093776703e-02
3.500000000000001443289932012703502550721168518066e-01,9.696520498872277515900464095466304570436477661133e-01,1.000000000000000020816681711721685132943093776703e-02
3.600000000000001532107773982716025784611701965332e-01,9.864016881349538801160292678105179220438003540039e-01,1.000000000000000020816681711721685132943093776703e-02
3.700000000000001620925615952728549018502235412598e-01,1.003319386328692663923334293940570205450057983398e+00,1.000000000000000020816681711721685132943093776703e-02
3.800000000000001709743457922741072252392768859863e-01,1.020403188003950134543629246763885021209716796875e+00,1.000000000000000020816681711721685132943093776703e-02
3.900000000000001798561299892753595486283302307129e-01,1.037651072056536616372568460064940154552459716797e+00,1.000000000000000020816681711721685132943093776703e-02
4.000000000000001887379141862766118720173835754395e-01,1.055060952433997556454414734616875648498535156250e+00,1.000000000000000020816681711721685132943093776703e-02
4.100000000000001976196983832778641954064369201660e-01,1.072630677859210512892218503111507743597030639648e+00,1.000000000000000020816681711721685132943093776703e-02
4.200000000000002065014825802791165187954902648926e-01,1.090358031587210563273515617765951901674270629883e+00,1.000000000000000020816681711721685132943093776703e-02
4.300000000000002153832667772803688421845436096191e-01,1.108240731196298067828820421709679067134857177734e+00,1.000000000000000020816681711721685132943093776703e-02
4.400000000000002242650509742816211655735969543457e-01,1.126276428414476615813555326894856989383697509766e+00,1.000000000000000020816681711721685132943093776703e-02
4.500000000000002331468351712828734889626502990723e-01,1.144462708982254328660133069206494837999343872070e+00,1.000000000000000020816681711721685132943093776703e-02
4.600000000000002420286193682841258123517036437988e-01,1.162797092552833033707315735227894037961959838867e+00,1.000000000000000020816681711721685132943093776703e-02
4.700000000000002509104035652853781357407569885254e-01,1.181277032630690948522556027455721050500869750977e+00,1.000000000000000020816681711721685132943093776703e-02
4.800000000000002597921877622866304591298103332520e-01,1.199899916549553413602779983193613588809967041016e+00,1.000000000000000020816681711721685132943093776703e-02
4.900000000000002686739719592878827825188636779785e-01,1.218663065490724450867787709285039454698562622070e+00,1.000000000000000020816681711721685132943093776703e-02
5.000000000000002220446049250313080847263336181641e-01,1.237563734542733717702844842278864234685897827148e+00,1.000000000000000020816681711721685132943093776703e-02
5.100000000000002309263891220325604081153869628906e-01,1.256599112803232554114174490678124129772186279297e+00,1.000000000000000020816681711721685132943093776703e-02
5.200000000000002398081733190338127315044403076172e-01,1.275766323524047063386888112290762364864349365234e+00,1.000000000000000020816681711721685132943093776703e-02
5.300000000000002486899575160350650548934936523438e-01,1.295062424300274850352820976695511490106582641602e+00,1.000000000000000020816681711721685132943093776703e-02
5.400000000000002575717417130363173782825469970703e-01,1.314484407304279400818813883233815431594848632812e+00,1.000000000000000020816681711721685132943093776703e-02
5.500000000000002664535259100375697016716003417969e-01,1.334029199565413215111675526713952422142028808594e+00,1.000000000000000020816681711721685132943093776703e-02
5.600000000000002753353101070388220250606536865234e-01,1.353693663296263727247037422785069793462753295898e+00,1.000000000000000020816681711721685132943093776703e-02
5.700000000000002842170943040400743484497070312500e-01,1.373474596266187841564487825962714850902557373047e+00,1.000000000000000020816681711721685132943093776703e-02
5.800000000000002930988785010413266718387603759766e-01,1.393368732222863615177743668027687817811965942383e+00,1.000000000000000020816681711721685132943093776703e-02
5.900000000000003019806626980425789952278137207031e-01,1.413372741362552975630251239635981619358062744141e+00,1.000000000000000020816681711721685132943093776703e-02
6.000000000000003108624468950438313186168670654297e-01,1.433483230849726730582460731966421008110046386719e+00,1.000000000000000020816681711721685132943093776703e-02
6.100000000000003197442310920450836420059204101562e-01,1.453696745386668487398651450348552316427230834961e+00,1.000000000000000020816681711721685132943093776703e-02
6.200000000000003286260152890463359653949737548828e-01,1.474009767833626360911125630082096904516220092773e+00,1.000000000000000020816681711721685132943093776703e-02
6.300000000000003375077994860475882887840270996094e-01,1.494418719880041601655307204055134207010269165039e+00,1.000000000000000020816681711721685132943093776703e-02
6.400000000000003463895836830488406121730804443359e-01,1.514919962767333316833173739723861217498779296875e+00,1.000000000000000020816681711721685132943093776703e-02
6.500000000000003552713678800500929355621337890625e-01,1.535509798063674269386069681786466389894485473633e+00,1.000000000000000020816681711721685132943093776703e-02
6.600000000000003641531520770513452589511871337891e-01,1.556184468491140560075791654526256024837493896484e+00,1.000000000000000020816681711721685132943093776703e-02
6.700000000000003730349362740525975823402404785156e-01,1.576940158805569369704357995942700654268264770508e+00,1.000000000000000020816681711721685132943093776703e-02
6.800000000000003819167204710538499057292938232422e-01,1.597772996729402983362433587899431586265563964844e+00,1.000000000000000020816681711721685132943093776703e-02
6.900000000000003907985046680551022291183471679688e-01,1.618679053937746248337248289317358285188674926758e+00,1.000000000000000020816681711721685132943093776703e-02
7.000000000000003996802888650563545525074005126953e-01,1.639654347097804665267517520987894386053085327148e+00,1.000000000000000020816681711721685132943093776703e-02
7.100000000000004085620730620576068758964538574219e-01,1.660694838961817687561506318161264061927795410156e+00,1.000000000000000020816681711721685132943093776703e-02
7.200000000000004174438572590588591992855072021484e-01,1.681796439513537855248159758048132061958312988281e+00,1.000000000000000020816681711721685132943093776703e-02
7.300000000000004263256414560601115226745605468750e-01,1.702955007168248213744732311170082539319992065430e+00,1.000000000000000020816681711721685132943093776703e-02
7.400000000000004352074256530613638460636138916016e-01,1.724166350026250960070228757103905081748962402344e+00,1.000000000000000020816681711721685132943093776703e-02
7.500000000000004440892098500626161694526672363281e-01,1.745426227179691425206442545459140092134475708008e+00,1.000000000000000020816681711721685132943093776703e-02
7.600000000000004529709940470638684928417205810547e-01,1.766730350072524435844911749882157891988754272461e+00,1.000000000000000020816681711721685132943093776703e-02
7.700000000000004618527782440651208162307739257812e-01,1.788074383913357934261512127704918384552001953125e+00,1.000000000000000020816681711721685132943093776703e-02
7.800000000000004707345624410663731396198272705078e-01,1.809453949140848338927867189340759068727493286133e+00,1.000000000000000020816681711721685132943093776703e-02
7.900000000000004796163466380676254630088806152344e-01,1.830864622941251296239784096542280167341232299805e+00,1.000000000000000020816681711721685132943093776703e-02
8.000000000000004884981308350688777863979339599609e-01,1.852301940817663750138422074087429791688919067383e+00,1.000000000000000020816681711721685132943093776703e-02
8.100000000000004973799150320701301097869873046875e-01,1.873761398210426865063027435098774731159210205078e+00,1.000000000000000020816681711721685132943093776703e-02
8.200000000000005062616992290713824331760406494141e-01,1.895238452168086729088258834963198751211166381836e+00,1.000000000000000020816681711721685132943093776703e-02
8.300000000000005151434834260726347565650939941406e-01,1.916728523068241596405414384207688271999359130859e+00,1.000000000000000020816681711721685132943093776703e-02
8.400000000000005240252676230738870799541473388672e-01,1.938226996387534706300925790856126695871353149414e+00,1.000000000000000020816681711721685132943093776703e-02
8.500000000000005329070518200751394033432006835938e-01,1.959729224519979107199674217554274946451187133789e+00,1.000000000000000020816681711721685132943093776703e-02
8.600000000000005417888360170763917267322540283203e-01,1.981230528642730970290131153888069093227386474609e+00,1.000000000000000020816681711721685132943093776703e-02
8.700000000000005506706202140776440501213073730469e-01,2.002726200628357045019356519333086907863616943359e+00,1.000000000000000020816681711721685132943093776703e-02
8.800000000000005595524044110788963735103607177734e-01,2.024211505002571520606124977348372340202331542969e+00,1.000000000000000020816681711721685132943093776703e-02
8.900000000000005684341886080801486968994140625000e-01,2.045681680946342950733196630608290433883666992188e+00,1.000000000000000020816681711721685132943093776703e-02
9.000000000000005773159728050814010202884674072266e-01,2.067131944341208615867344633443281054496765136719e+00,1.000000000000000020816681711721685132943093776703e-02
9.100000000000005861977570020826533436775207519531e-01,2.088557489856556426133238346665166318416595458984e+00,1.000000000000000020816681711721685132943093776703e-02
9.200000000000005950795411990839056670665740966797e-01,2.109953493077567188151988375466316938400268554688e+00,1.000000000000000020816681711721685132943093776703e-02
9.300000000000006039613253960851579904556274414062e-01,2.131315112672441891561447846470400691032409667969e+00,1.000000000000000020816681711721685132943093776703e-02
9.400000000000006128431095930864103138446807861328e-01,2.152637492597472945732306470745243132114410400391e+00,1.000000000000000020816681711721685132943093776703e-02
9.500000000000006217248937900876626372337341308594e-01,2.173915764338440581582290178630501031875610351562e+00,1.000000000000000020816681711721685132943093776703e-02
9.600000000000006306066779870889149606227874755859e-01,2.195145049186765451310066055157221853733062744141e+00,1.000000000000000020816681711721685132943093776703e-02
9.700000000000006394884621840901672840118408203125e-01,2.216320460548767634634259593440219759941101074219e+00,1.000000000000000020816681711721685132943093776703e-02
9.800000000000006483702463810914196074008941650391e-01,2.237437106286328081239389575785025954246520996094e+00,1.000000000000000020816681711721685132943093776703e-02
9.900000000000006572520305780926719307899475097656e-01,2.258490091087183682105887783109210431575775146484e+00,1.000000000000000020816681711721685132943093776703e-02
1.000000000000000666133814775093924254179000854492e+00,2.279474518863023213555152324261143803596496582031e+00,1.000000000000000020816681711721685132943093776703e-02
1.010000000000000675015598972095176577568054199219e+00,2.300385495173499439403030919493176043033599853516e+00,1.000000000000000020816681711721685132943093776703e-02
1.020000000000000683897383169096428900957107543945e+00,2.321218129674203822787603712640702724456787109375e+00,1.000000000000000020816681711721685132943093776703e-02
1.030000000000000692779167366097681224346160888672e+00,2.341967538586607222583779730484820902347564697266e+00,1.000000000000000020816681711721685132943093776703e-02
1.040000000000000701660951563098933547735214233398e+00,2.362628847187909553184681499260477721691131591797e+00,1.000000000000000020816681711721685132943093776703e-02
1.050000000000000710542735760100185871124267578125e+00,2.383197192318689872081449721008539199829101562500e+00,1.000000000000000020816681711721685132943093776703e-02
1.060000000000000719424519957101438194513320922852e+00,2.403667724906202618484485356020741164684295654297e+00,1.000000000000000020816681711721685132943093776703e-02
1.070000000000000728306304154102690517902374267578e+00,2.424035612501115544148433400550857186317443847656e+00,1.000000000000000020816681711721685132943093776703e-02
1.080000000000000737188088351103942841291427612305e+00,2.444296041825447574069585243705660104751586914062e+00,1.000000000000000020816681711721685132943093776703e-02
1.090000000000000746069872548105195164680480957031e+00,2.464444221329414208554453580291010439395904541016e+00,1.000000000000000020816681711721685132943093776703e-02
1.100000000000000754951656745106447488069534301758e+00,2.484475383754855659645954801817424595355987548828e+00,1.000000000000000020816681711721685132943093776703e-02
1.110000000000000763833440942107699811458587646484e+00,2.504384788702887831846055632922798395156860351562e+00,1.000000000000000020816681711721685132943093776703e-02
1.120000000000000772715225139108952134847640991211e+00,2.524167725203380729936952775460667908191680908203e+00,1.000000000000000020816681711721685132943093776703e-02
1.130000000000000781597009336110204458236694335938e+00,2.543819514283837346368954968056641519069671630859e+00,1.000000000000000020816681711721685132943093776703e-02
1.140000000000000790478793533111456781625747680664e+00,2.563335511535225652579583766055293381214141845703e+00,1.000000000000000020816681711721685132943093776703e-02
1.150000000000000799360577730112709105014801025391e+00,2.582711109672290561434238043148070573806762695312e+00,1.000000000000000020816681711721685132943093776703e-02
1.160000000000000808242361927113961428403854370117e+00,2.601941741085845194447756512090563774108886718750e+00,1.000000000000000020816681711721685132943093776703e-02
1.170000000000000817124146124115213751792907714844e+00,2.621022880384541231535422411980107426643371582031e+00,1.000000000000000020816681711721685132943093776703e-02
1.180000000000000826005930321116466075181961059570e+00,2.639950046923583926172796054743230342864990234375e+00,1.000000000000000020816681711721685132943093776703e-02
1.190000000000000834887714518117718398571014404297e+00,2.658718807317867138806377624860033392906188964844e+00,1.000000000000000020816681711721685132943093776703e-02
1.200000000000000843769498715118970721960067749023e+00,2.677324777936983757342659373534843325614929199219e+00,1.000000000000000020816681711721685132943093776703e-02
