time,u0,tau
0.00000000e+00,5.00000000e-01,1.25000000e-02
1.25000000e-02,5.06210775e-01,1.25000000e-02
2.50000000e-02,5.12342456e-01,1.25000000e-02
3.75000000e-02,5.18394084e-01,1.25000000e-02
5.00000000e-02,5.24364776e-01,1.25000000e-02
6.25000000e-02,5.30253533e-01,1.25000000e-02
7.50000000e-02,5.36059440e-01,1.25000000e-02
8.75000000e-02,5.41781586e-01,1.25000000e-02
1.00000000e-01,5.47419078e-01,1.25000000e-02
1.12500000e-01,5.52971036e-01,1.25000000e-02
1.25000000e-01,5.58436592e-01,1.25000000e-02
1.37500000e-01,5.63814891e-01,1.25000000e-02
1.50000000e-01,5.69105095e-01,1.25000000e-02
1.62500000e-01,5.74306375e-01,1.25000000e-02
1.75000000e-01,5.79417920e-01,1.25000000e-02
1.87500000e-01,5.84438931e-01,1.25000000e-02
2.00000000e-01,5.89368623e-01,1.25000000e-02
2.12500000e-01,5.94206225e-01,1.25000000e-02
2.25000000e-01,5.98950984e-01,1.25000000e-02
2.37500000e-01,6.03602156e-01,1.25000000e-02
2.50000000e-01,6.08159015e-01,1.25000000e-02
2.62500000e-01,6.12620849e-01,1.25000000e-02
2.75000000e-01,6.16986961e-01,1.25000000e-02
2.87500000e-01,6.21256669e-01,1.25000000e-02
3.00000000e-01,6.25429306e-01,1.25000000e-02
3.12500000e-01,6.29504219e-01,1.25000000e-02
3.25000000e-01,6.33480773e-01,1.25000000e-02
3.37500000e-01,6.37358345e-01,1.25000000e-02
3.50000000e-01,6.41136330e-01,1.25000000e-02
3.62500000e-01,6.44814138e-01,1.25000000e-02
3.75000000e-01,6.48391193e-01,1.25000000e-02
3.87500000e-01,6.51866938e-01,1.25000000e-02
4.00000000e-01,6.55240829e-01,1.25000000e-02
4.12500000e-01,6.58512339e-01,1.25000000e-02
4.25000000e-01,6.61680956e-01,1.25000000e-02
4.37500000e-01,6.64746186e-01,1.25000000e-02
4.50000000e-01,6.67707550e-01,1.25000000e-02
4.62500000e-01,6.70564585e-01,1.25000000e-02
4.75000000e-01,6.73316844e-01,1.25000000e-02
4.87500000e-01,6.75963898e-01,1.25000000e-02
5.00000000e-01,6.78505333e-01,1.25000000e-02
5.12500000e-01,6.80940752e-01,1.25000000e-02
5.25000000e-01,6.83269775e-01,1.25000000e-02
5.37500000e-01,6.85492037e-01,1.25000000e-02
5.50000000e-01,6.87607191e-01,1.25000000e-02
5.62500000e-01,6.89614907e-01,1.25000000e-02
5.75000000e-01,6.91514871e-01,1.25000000e-02
5.87500000e-01,6.93306787e-01,1.25000000e-02
6.00000000e-01,6.94990373e-01,1.25000000e-02
6.12500000e-01,6.96565369e-01,1.25000000e-02
6.25000000e-01,6.98031526e-01,1.25000000e-02
6.37500000e-01,6.99388616e-01,1.25000000e-02
6.50000000e-01,7.00636428e-01,1.25000000e-02
6.62500000e-01,7.01774766e-01,1.25000000e-02
6.75000000e-01,7.02803452e-01,1.25000000e-02
6.87500000e-01,7.03722325e-01,1.25000000e-02
7.00000000e-01,7.04531243e-01,1.25000000e-02
7.12500000e-01,7.05230078e-01,1.25000000e-02
7.25000000e-01,7.05818721e-01,1.25000000e-02
7.37500000e-01,7.06297082e-01,1.25000000e-02
7.50000000e-01,7.06665083e-01,1.25000000e-02
7.62500000e-01,7.06922669e-01,1.25000000e-02
7.75000000e-01,7.07069800e-01,1.25000000e-02
7.87500000e-01,7.07106451e-01,1.25000000e-02
8.00000000e-01,7.07032617e-01,1.25000000e-02
8.12500000e-01,7.06848310e-01,1.25000000e-02
8.25000000e-01,7.06553559e-01,1.25000000e-02
8.37500000e-01,7.06148410e-01,1.25000000e-02
8.50000000e-01,7.05632926e-01,1.25000000e-02
8.62500000e-01,7.05007187e-01,1.25000000e-02
8.75000000e-01,7.04271292e-01,1.25000000e-02
8.87500000e-01,7.03425355e-01,1.25000000e-02
9.00000000e-01,7.02469509e-01,1.25000000e-02
9.12500000e-01,7.01403902e-01,1.25000000e-02
9.25000000e-01,7.00228702e-01,1.25000000e-02
9.37500000e-01,6.98944092e-01,1.25000000e-02
9.50000000e-01,6.97550273e-01,1.25000000e-02
9.62500000e-01,6.96047463e-01,1.25000000e-02
9.75000000e-01,6.94435895e-01,1.25000000e-02
9.87500000e-01,6.92715823e-01,1.25000000e-02
1.00000000e+00,6.90887515e-01,1.25000000e-02
1.01250000e+00,6.88951257e-01,1.25000000e-02
1.02500000e+00,6.86907350e-01,1.25000000e-02
1.03750000e+00,6.84756116e-01,1.25000000e-02
1.05000000e+00,6.82497889e-01,1.25000000e-02
1.06250000e+00,6.80133022e-01,1.25000000e-02
1.07500000e+00,6.77661886e-01,1.25000000e-02
1.08750000e+00,6.75084865e-01,1.25000000e-02
1.10000000e+00,6.72402364e-01,1.25000000e-02
1.11250000e+00,6.69614800e-01,1.25000000e-02
1.12500000e+00,6.66722610e-01,1.25000000e-02
1.13750000e+00,6.63726245e-01,1.25000000e-02
1.15000000e+00,6.60626174e-01,1.25000000e-02
1.16250000e+00,6.57422881e-01,1.25000000e-02
1.17500000e+00,6.54116867e-01,1.25000000e-02
1.18750000e+00,6.50708647e-01,1.25000000e-02
1.20000000e+00,6.47198756e-01,1.25000000e-02
1.21250000e+00,6.43587740e-01,1.25000000e-02
1.22500000e+00,6.39876164e-01,1.25000000e-02
1.23750000e+00,6.36064609e-01,1.25000000e-02
1.25000000e+00,6.32153669e-01,1.25000000e-02
1.26250000e+00,6.28143956e-01,1.25000000e-02
1.27500000e+00,6.24036097e-01,1.25000000e-02
1.28750000e+00,6.19830732e-01,1.25000000e-02
1.30000000e+00,6.15528520e-01,1.25000000e-02
1.31250000e+00,6.11130132e-01,1.25000000e-02
1.32500000e+00,6.06636257e-01,1.25000000e-02
1.33750000e+00,6.02047595e-01,1.25000000e-02
1.35000000e+00,5.97364863e-01,1.25000000e-02
1.36250000e+00,5.92588795e-01,1.25000000e-02
1.37500000e+00,5.87720135e-01,1.25000000e-02
1.38750000e+00,5.82759645e-01,1.25000000e-02
1.40000000e+00,5.77708099e-01,1.25000000e-02
1.41250000e+00,5.72566287e-01,1.25000000e-02
1.42500000e+00,5.67335013e-01,1.25000000e-02
1.43750000e+00,5.62015093e-01,1.25000000e-02
1.45000000e+00,5.56607359e-01,1.25000000e-02
1.46250000e+00,5.51112656e-01,1.25000000e-02
1.47500000e+00,5.45531842e-01,1.25000000e-02
1.48750000e+00,5.39865789e-01,1.25000000e-02
1.50000000e+00,5.34115384e-01,1.25000000e-02
1.51250000e+00,5.28281523e-01,1.25000000e-02
1.52500000e+00,5.22365120e-01,1.25000000e-02
1.53750000e+00,5.16367097e-01,1.25000000e-02
1.55000000e+00,5.10288393e-01,1.25000000e-02
1.56250000e+00,5.04129957e-01,1.25000000e-02
1.57500000e+00,4.97892751e-01,1.25000000e-02
1.58750000e+00,4.91577750e-01,1.25000000e-02
1.60000000e+00,4.85185941e-01,1.25000000e-02
1.61250000e+00,4.78718322e-01,1.25000000e-02
1.62500000e+00,4.72175905e-01,1.25000000e-02
1.63750000e+00,4.65559710e-01,1.25000000e-02
1.65000000e+00,4.58870772e-01,1.25000000e-02
1.66250000e+00,4.52110136e-01,1.25000000e-02
1.67500000e+00,4.45278859e-01,1.25000000e-02
1.68750000e+00,4.38378008e-01,1.25000000e-02
1.70000000e+00,4.31408660e-01,1.25000000e-02
1.71250000e+00,4.24371906e-01,1.25000000e-02
1.72500000e+00,4.17268844e-01,1.25000000e-02
1.73750000e+00,4.10100584e-01,1.25000000e-02
1.75000000e+00,4.02868246e-01,1.25000000e-02
1.76250000e+00,3.95572961e-01,1.25000000e-02
1.77500000e+00,3.88215869e-01,1.25000000e-02
1.78750000e+00,3.80798118e-01,1.25000000e-02
1.80000000e+00,3.73320867e-01,1.25000000e-02
1.81250000e+00,3.65785286e-01,1.25000000e-02
1.82500000e+00,3.58192552e-01,1.25000000e-02
1.83750000e+00,3.50543850e-01,1.25000000e-02
1.85000000e+00,3.42840376e-01,1.25000000e-02
1.86250000e+00,3.35083334e-01,1.25000000e-02
1.87500000e+00,3.27273936e-01,1.25000000e-02
1.88750000e+00,3.19413401e-01,1.25000000e-02
1.90000000e+00,3.11502959e-01,1.25000000e-02
1.91250000e+00,3.03543844e-01,1.25000000e-02
1.92500000e+00,2.95537302e-01,1.25000000e-02
1.93750000e+00,2.87484581e-01,1.25000000e-02
1.95000000e+00,2.79386942e-01,1.25000000e-02
1.96250000e+00,2.71245649e-01,1.25000000e-02
1.97500000e+00,2.63061974e-01,1.25000000e-02
1.98750000e+00,2.54837196e-01,1.25000000e-02
2.00000000e+00,2.46572600e-01,1.25000000e-02
2.01250000e+00,2.38269477e-01,1.25000000e-02
2.02500000e+00,2.29929125e-01,1.25000000e-02
2.03750000e+00,2.21552847e-01,1.25000000e-02
2.05000000e+00,2.13141951e-01,1.25000000e-02
2.06250000e+00,2.04697752e-01,1.25000000e-02
2.07500000e+00,1.96221570e-01,1.25000000e-02
2.08750000e+00,1.87714728e-01,1.25000000e-02
2.10000000e+00,1.79178555e-01,1.25000000e-02
2.11250000e+00,1.70614387e-01,1.25000000e-02
2.12500000e+00,1.62023559e-01,1.25000000e-02
2.13750000e+00,1.53407416e-01,1.25000000e-02
2.15000000e+00,1.44767303e-01,1.25000000e-02
2.16250000e+00,1.36104570e-01,1.25000000e-02
2.17500000e+00,1.27420571e-01,1.25000000e-02
2.18750000e+00,1.18716663e-01,1.25000000e-02
2.20000000e+00,1.09994205e-01,1.25000000e-02
2.21250000e+00,1.01254561e-01,1.25000000e-02
2.22500000e+00,9.24990953e-02,1.25000000e-02
2.23750000e+00,8.37291770e-02,1.25000000e-02
2.25000000e+00,7.49461759e-02,1.25000000e-02
2.26250000e+00,6.61514645e-02,1.25000000e-02
2.27500000e+00,5.73464169e-02,1.25000000e-02
2.28750000e+00,4.85324089e-02,1.25000000e-02
2.30000000e+00,3.97108176e-02,1.25000000e-02
2.31250000e+00,3.08830214e-02,1.25000000e-02
2.32500000e+00,2.20503997e-02,1.25000000e-02
2.33750000e+00,1.32143324e-02,1.25000000e-02
2.35000000e+00,4.37620033e-03,1.25000000e-02
2.36250000e+00,-4.46261571e-03,1.25000000e-02
2.37500000e+00,-1.33007346e-02,1.25000000e-02
2.38750000e+00,-2.21367755e-02,1.25000000e-02
2.40000000e+00,-3.09693576e-02,1.25000000e-02
2.41250000e+00,-3.97971011e-02,1.25000000e-02
2.42500000e+00,-4.86186264e-02,1.25000000e-02
2.43750000e+00,-5.74325554e-02,1.25000000e-02
2.45000000e+00,-6.62375107e-02,1.25000000e-02
2.46250000e+00,-7.50321167e-02,1.25000000e-02
2.47500000e+00,-8.38149993e-02,1.25000000e-02
2.48750000e+00,-9.25847860e-02,1.25000000e-02
2.50000000e+00,-1.01340107e-01,1.25000000e-02
2.51250000e+00,-1.10079593e-01,1.25000000e-02
2.52500000e+00,-1.18801880e-01,1.25000000e-02
2.53750000e+00,-1.27505605e-01,1.25000000e-02
2.55000000e+00,-1.36189407e-01,1.25000000e-02
2.56250000e+00,-1.44851930e-01,1.25000000e-02
2.57500000e+00,-1.53491821e-01,1.25000000e-02
2.58750000e+00,-1.62107729e-01,1.25000000e-02
2.60000000e+00,-1.70698307e-01,1.25000000e-02
2.61250000e+00,-1.79262215e-01,1.25000000e-02
2.62500000e+00,-1.87798114e-01,1.25000000e-02
2.63750000e+00,-1.96304669e-01,1.25000000e-02
2.65000000e+00,-2.04780553e-01,1.25000000e-02
2.66250000e+00,-2.13224440e-01,1.25000000e-02
2.67500000e+00,-2.21635011e-01,1.25000000e-02
2.68750000e+00,-2.30010952e-01,1.25000000e-02
2.70000000e+00,-2.38350955e-01,1.25000000e-02
2.71250000e+00,-2.46653716e-01,1.25000000e-02
2.72500000e+00,-2.54917938e-01,1.25000000e-02
2.73750000e+00,-2.63142329e-01,1.25000000e-02
2.75000000e+00,-2.71325606e-01,1.25000000e-02
2.76250000e+00,-2.79466488e-01,1.25000000e-02
2.77500000e+00,-2.87563704e-01,1.25000000e-02
2.78750000e+00,-2.95615989e-01,1.25000000e-02
2.80000000e+00,-3.03622085e-01,1.25000000e-02
2.81250000e+00,-3.11580741e-01,1.25000000e-02
2.82500000e+00,-3.19490713e-01,1.25000000e-02
2.83750000e+00,-3.27350765e-01,1.25000000e-02
2.85000000e+00,-3.35159669e-01,1.25000000e-02
2.86250000e+00,-3.42916206e-01,1.25000000e-02
2.87500000e+00,-3.50619163e-01,1.25000000e-02
2.88750000e+00,-3.58267336e-01,1.25000000e-02
2.90000000e+00,-3.65859530e-01,1.25000000e-02
2.91250000e+00,-3.73394560e-01,1.25000000e-02
2.92500000e+00,-3.80871248e-01,1.25000000e-02
2.93750000e+00,-3.88288426e-01,1.25000000e-02
2.95000000e+00,-3.95644935e-01,1.25000000e-02
2.96250000e+00,-4.02939624e-01,1.25000000e-02
2.97500000e+00,-4.10171356e-01,1.25000000e-02
2.98750000e+00,-4.17338999e-01,1.25000000e-02
3.00000000e+00,-4.24441434e-01,1.25000000e-02
3.01250000e+00,-4.31477551e-01,1.25000000e-02
3.02500000e+00,-4.38446250e-01,1.25000000e-02
3.03750000e+00,-4.45346443e-01,1.25000000e-02
3.05000000e+00,-4.52177052e-01,1.25000000e-02
3.06250000e+00,-4.58937009e-01,1.25000000e-02
3.07500000e+00,-4.65625258e-01,1.25000000e-02
3.08750000e+00,-4.72240754e-01,1.25000000e-02
3.10000000e+00,-4.78782464e-01,1.25000000e-02
3.11250000e+00,-4.85249365e-01,1.25000000e-02
3.12500000e+00,-4.91640447e-01,1.25000000e-02
3.13750000e+00,-4.97954711e-01,1.25000000e-02
3.15000000e+00,-5.04191170e-01,1.25000000e-02
3.16250000e+00,-5.10348851e-01,1.25000000e-02
3.17500000e+00,-5.16426791e-01,1.25000000e-02
3.18750000e+00,-5.22424041e-01,1.25000000e-02
3.20000000e+00,-5.28339663e-01,1.25000000e-02
3.21250000e+00,-5.34172732e-01,1.25000000e-02
3.22500000e+00,-5.39922339e-01,1.25000000e-02
3.23750000e+00,-5.45587584e-01,1.25000000e-02
3.25000000e+00,-5.51167582e-01,1.25000000e-02
3.26250000e+00,-5.56661461e-01,1.25000000e-02
3.27500000e+00,-5.62068363e-01,1.25000000e-02
3.28750000e+00,-5.67387443e-01,1.25000000e-02
3.30000000e+00,-5.72617870e-01,1.25000000e-02
3.31250000e+00,-5.77758827e-01,1.25000000e-02
3.32500000e+00,-5.82809510e-01,1.25000000e-02
3.33750000e+00,-5.87769130e-01,1.25000000e-02
3.35000000e+00,-5.92636913e-01,1.25000000e-02
3.36250000e+00,-5.97412097e-01,1.25000000e-02
3.37500000e+00,-6.02093937e-01,1.25000000e-02
3.38750000e+00,-6.06681702e-01,1.25000000e-02
3.40000000e+00,-6.11174673e-01,1.25000000e-02
3.41250000e+00,-6.15572150e-01,1.25000000e-02
3.42500000e+00,-6.19873445e-01,1.25000000e-02
3.43750000e+00,-6.24077886e-01,1.25000000e-02
3.45000000e+00,-6.28184816e-01,1.25000000e-02
3.46250000e+00,-6.32193593e-01,1.25000000e-02
3.47500000e+00,-6.36103592e-01,1.25000000e-02
3.48750000e+00,-6.39914201e-01,1.25000000e-02
3.50000000e+00,-6.43624824e-01,1.25000000e-02
3.51250000e+00,-6.47234883e-01,1.25000000e-02
3.52500000e+00,-6.50743812e-01,1.25000000e-02
3.53750000e+00,-6.54151064e-01,1.25000000e-02
3.55000000e+00,-6.57456107e-01,1.25000000e-02
3.56250000e+00,-6.60658423e-01,1.25000000e-02
3.57500000e+00,-6.63757513e-01,1.25000000e-02
3.58750000e+00,-6.66752892e-01,1.25000000e-02
3.60000000e+00,-6.69644092e-01,1.25000000e-02
3.61250000e+00,-6.72430662e-01,1.25000000e-02
3.62500000e+00,-6.75112166e-01,1.25000000e-02
3.63750000e+00,-6.77688185e-01,1.25000000e-02
3.65000000e+00,-6.80158316e-01,1.25000000e-02
3.66250000e+00,-6.82522175e-01,1.25000000e-02
3.67500000e+00,-6.84779391e-01,1.25000000e-02
3.68750000e+00,-6.86929611e-01,1.25000000e-02
3.70000000e+00,-6.88972500e-01,1.25000000e-02
3.71250000e+00,-6.90907739e-01,1.25000000e-02
3.72500000e+00,-6.92735024e-01,1.25000000e-02
3.73750000e+00,-6.94454072e-01,1.25000000e-02
3.75000000e+00,-6.96064612e-01,1.25000000e-02
3.76250000e+00,-6.97566394e-01,1.25000000e-02
3.77500000e+00,-6.98959182e-01,1.25000000e-02
3.78750000e+00,-7.00242759e-01,1.25000000e-02
3.80000000e+00,-7.01416925e-01,1.25000000e-02
3.81250000e+00,-7.02481496e-01,1.25000000e-02
3.82500000e+00,-7.03436306e-01,1.25000000e-02
3.83750000e+00,-7.04281205e-01,1.25000000e-02
3.85000000e+00,-7.05016062e-01,1.25000000e-02
3.86250000e+00,-7.05640762e-01,1.25000000e-02
3.87500000e+00,-7.06155206e-01,1.25000000e-02
3.88750000e+00,-7.06559316e-01,1.25000000e-02
3.90000000e+00,-7.06853027e-01,1.25000000e-02
3.91250000e+00,-7.07036293e-01,1.25000000e-02
3.92500000e+00,-7.07109087e-01,1.25000000e-02
3.93750000e+00,-7.07071396e-01,1.25000000e-02
3.95000000e+00,-7.06923227e-01,1.25000000e-02
3.96250000e+00,-7.06664603e-01,1.25000000e-02
3.97500000e+00,-7.06295564e-01,1.25000000e-02
3.98750000e+00,-7.05816167e-01,1.25000000e-02
4.00000000e+00,-7.05226489e-01,1.25000000e-02
4.01250000e+00,-7.04526620e-01,1.25000000e-02
4.02500000e+00,-7.03716670e-01,1.25000000e-02
4.03750000e+00,-7.02796766e-01,1.25000000e-02
4.05000000e+00,-7.01767051e-01,1.25000000e-02
4.06250000e+00,-7.00627687e-01,1.25000000e-02
4.07500000e+00,-6.99378851e-01,1.25000000e-02
4.08750000e+00,-6.98020739e-01,1.25000000e-02
4.10000000e+00,-6.96553562e-01,1.25000000e-02
4.11250000e+00,-6.94977551e-01,1.25000000e-02
4.12500000e+00,-6.93292950e-01,1.25000000e-02
4.13750000e+00,-6.91500024e-01,1.25000000e-02
4.15000000e+00,-6.89599053e-01,1.25000000e-02
4.16250000e+00,-6.87590333e-01,1.25000000e-02
4.17500000e+00,-6.85474178e-01,1.25000000e-02
4.18750000e+00,-6.83250920e-01,1.25000000e-02
4.20000000e+00,-6.80920905e-01,1.25000000e-02
4.21250000e+00,-6.78484497e-01,1.25000000e-02
4.22500000e+00,-6.75942078e-01,1.25000000e-02
4.23750000e+00,-6.73294044e-01,1.25000000e-02
4.25000000e+00,-6.70540810e-01,1.25000000e-02
4.26250000e+00,-6.67682805e-01,1.25000000e-02
4.27500000e+00,-6.64720475e-01,1.25000000e-02
4.28750000e+00,-6.61654285e-01,1.25000000e-02
4.30000000e+00,-6.58484712e-01,1.25000000e-02
4.31250000e+00,-6.55212253e-01,1.25000000e-02
4.32500000e+00,-6.51837418e-01,1.25000000e-02
4.33750000e+00,-6.48360735e-01,1.25000000e-02
4.35000000e+00,-6.44782746e-01,1.25000000e-02
4.36250000e+00,-6.41104012e-01,1.25000000e-02
4.37500000e+00,-6.37325107e-01,1.25000000e-02
4.38750000e+00,-6.33446621e-01,1.25000000e-02
4.40000000e+00,-6.29469160e-01,1.25000000e-02
4.41250000e+00,-6.25393346e-01,1.25000000e-02
4.42500000e+00,-6.21219815e-01,1.25000000e-02
4.43750000e+00,-6.16949220e-01,1.25000000e-02
4.45000000e+00,-6.12582228e-01,1.25000000e-02
4.46250000e+00,-6.08119522e-01,1.25000000e-02
4.47500000e+00,-6.03561798e-01,1.25000000e-02
4.48750000e+00,-5.98909768e-01,1.25000000e-02
4.50000000e+00,-5.94164161e-01,1.25000000e-02
4.51250000e+00,-5.89325716e-01,1.25000000e-02
4.52500000e+00,-5.84395190e-01,1.25000000e-02
4.53750000e+00,-5.79373354e-01,1.25000000e-02
4.55000000e+00,-5.74260992e-01,1.25000000e-02
4.56250000e+00,-5.69058903e-01,1.25000000e-02
4.57500000e+00,-5.63767900e-01,1.25000000e-02
4.58750000e+00,-5.58388809e-01,1.25000000e-02
4.60000000e+00,-5.52922471e-01,1.25000000e-02
4.61250000e+00,-5.47369740e-01,1.25000000e-02
4.62500000e+00,-5.41731483e-01,1.25000000e-02
4.63750000e+00,-5.36008582e-01,1.25000000e-02
4.65000000e+00,-5.30201931e-01,1.25000000e-02
4.66250000e+00,-5.24312437e-01,1.25000000e-02
4.67500000e+00,-5.18341020e-01,1.25000000e-02
4.68750000e+00,-5.12288614e-01,1.25000000e-02
4.70000000e+00,-5.06156163e-01,1.25000000e-02
4.71250000e+00,-4.99944627e-01,1.25000000e-02
4.72500000e+00,-4.93654975e-01,1.25000000e-02
4.73750000e+00,-4.87288191e-01,1.25000000e-02
4.75000000e+00,-4.80845269e-01,1.25000000e-02
4.76250000e+00,-4.74327216e-01,1.25000000e-02
4.77500000e+00,-4.67735050e-01,1.25000000e-02
4.78750000e+00,-4.61069801e-01,1.25000000e-02
4.80000000e+00,-4.54332512e-01,1.25000000e-02
4.81250000e+00,-4.47524233e-01,1.25000000e-02
4.82500000e+00,-4.40646031e-01,1.25000000e-02
4.83750000e+00,-4.33698978e-01,1.25000000e-02
4.85000000e+00,-4.26684160e-01,1.25000000e-02
4.86250000e+00,-4.19602674e-01,1.25000000e-02
4.87500000e+00,-4.12455626e-01,1.25000000e-02
4.88750000e+00,-4.05244133e-01,1.25000000e-02
4.90000000e+00,-3.97969321e-01,1.25000000e-02
4.91250000e+00,-3.90632327e-01,1.25000000e-02
4.92500000e+00,-3.83234297e-01,1.25000000e-02
4.93750000e+00,-3.75776389e-01,1.25000000e-02
4.95000000e+00,-3.68259765e-01,1.25000000e-02
4.96250000e+00,-3.60685602e-01,1.25000000e-02
4.97500000e+00,-3.53055083e-01,1.25000000e-02
4.98750000e+00,-3.45369399e-01,1.25000000e-02
5.00000000e+00,-3.37629753e-01,1.25000000e-02
5.01250000e+00,-3.29837352e-01,1.25000000e-02
5.02500000e+00,-3.21993415e-01,1.25000000e-02
5.03750000e+00,-3.14099167e-01,1.25000000e-02
5.05000000e+00,-3.06155841e-01,1.25000000e-02
5.06250000e+00,-2.98164680e-01,1.25000000e-02
5.07500000e+00,-2.90126931e-01,1.25000000e-02
5.08750000e+00,-2.82043850e-01,1.25000000e-02
5.10000000e+00,-2.73916700e-01,1.25000000e-02
5.11250000e+00,-2.65746752e-01,1.25000000e-02
5.12500000e+00,-2.57535281e-01,1.25000000e-02
5.13750000e+00,-2.49283570e-01,1.25000000e-02
5.15000000e+00,-2.40992910e-01,1.25000000e-02
5.16250000e+00,-2.32664595e-01,1.25000000e-02
5.17500000e+00,-2.24299927e-01,1.25000000e-02
5.18750000e+00,-2.15900212e-01,1.25000000e-02
5.20000000e+00,-2.07466763e-01,1.25000000e-02
5.21250000e+00,-1.99000899e-01,1.25000000e-02
5.22500000e+00,-1.90503940e-01,1.25000000e-02
5.23750000e+00,-1.81977216e-01,1.25000000e-02
5.25000000e+00,-1.73422058e-01,1.25000000e-02
5.26250000e+00,-1.64839803e-01,1.25000000e-02
5.27500000e+00,-1.56231793e-01,1.25000000e-02
5.28750000e+00,-1.47599371e-01,1.25000000e-02
5.30000000e+00,-1.38943888e-01,1.25000000e-02
5.31250000e+00,-1.30266695e-01,1.25000000e-02
5.32500000e+00,-1.21569148e-01,1.25000000e-02
5.33750000e+00,-1.12852606e-01,1.25000000e-02
5.35000000e+00,-1.04118431e-01,1.25000000e-02
5.36250000e+00,-9.53679873e-02,1.25000000e-02
5.37500000e+00,-8.66026430e-02,1.25000000e-02
5.38750000e+00,-7.78237672e-02,1.25000000e-02
5.40000000e+00,-6.90327315e-02,1.25000000e-02
5.41250000e+00,-6.02309097e-02,1.25000000e-02
5.42500000e+00,-5.14196769e-02,1.25000000e-02
5.43750000e+00,-4.26004099e-02,1.25000000e-02
5.45000000e+00,-3.37744867e-02,1.25000000e-02
5.46250000e+00,-2.49432863e-02,1.25000000e-02
