time,u0,u1,tau
0.000000000000000000000000000000000000000000000000e+00,1.000000000000000000000000000000000000000000000000e+00,1.000000000000000055511151231257827021181583404541e-01,1.000000000000000020816681711721685132943093776703e-02
1.000000000000000020816681711721685132943093776703e-02,1.000078203180116127738244480305240813322598114610e+00,5.981674266266578315692174078188614316786697600037e-02,1.000000000000000020816681711721685132943093776703e-02
2.000000000000000041633363423443370265886187553406e-02,9.985952527403051449971828346097169060158194042742e-01,1.997980366500021961068686918161496635093499207869e-02,1.000000000000000020816681711721685132943093776703e-02
3.000000000000000062450045135165055398829281330109e-02,9.955918609825532280621987468727240866428473964334e-01,-1.945858718962945673415705118147744911993868299760e-02,1.000000000000000020816681711721685132943093776703e-02
4.000000000000000083266726846886740531772375106812e-02,9.903230526035714382225051688468653310337685979903e-01,-5.816524008177084038506633907605891664616137859412e-02,1.000000000000000020816681711721685132943093776703e-02
5.000000000000000104083408558608425664715468883514e-02,9.836550942880487884601055370570321656487067230046e-01,-9.619343920071236627122564580294472591504018055275e-02,1.000000000000000020816681711721685132943093776703e-02
6.000000000000000124900090270330110797658562660217e-02,9.756290864835457257264565711363246691689710132778e-01,-1.335261387562400852969902650957401135656255064532e-01,1.000000000000000020816681711721685132943093776703e-02
7.000000000000000145716771982051795930601656436920e-02,9.662967530739543725397909523788797514498583041131e-01,-1.701277023871250065911210624935989699224592186511e-01,1.000000000000000020816681711721685132943093776703e-02
8.000000000000000166533453693773481063544750213623e-02,9.557063860249491456895151730854820470995036885142e-01,-2.059675300234370632029932274287276072755048517138e-01,1.000000000000000020816681711721685132943093776703e-02
9.000000000000000187350135405495166196487843990326e-02,9.439065900880587459890851131927291817191871814430e-01,-2.410172464573637383597210642749431031006679404527e-01,1.000000000000000020816681711721685132943093776703e-02
1.000000000000000020816681711721685132943093776703e-01,9.309456900056961023491412798858135602131369523704e-01,-2.752506144691988511602302736047676035013864748180e-01,1.000000000000000020816681711721685132943093776703e-02
1.100000000000000022898349882893853646237403154373e-01,9.168717063494947826880407393268512805661885067821e-01,-3.086434496602742515061583439273107387634809128940e-01,1.000000000000000020816681711721685132943093776703e-02
1.200000000000000024980018054066022159531712532043e-01,9.017323002470835335560132850485359767844784073532e-01,-3.411735777088737802645486418828824071169947274029e-01,1.000000000000000020816681711721685132943093776703e-02
1.300000000000000027061686225238190672826021909714e-01,8.855747227816346771171220064733375920695834793150e-01,-3.728207848825247636755791935669890335702802985907e-01,1.000000000000000020816681711721685132943093776703e-02
1.400000000000000029143354396410359186120331287384e-01,8.684457645330656715056821814968657236022409051657e-01,-4.035667656828770929111280252321591888176044449210e-01,1.000000000000000020816681711721685132943093776703e-02
1.500000000000000031225022567582527699414640665054e-01,8.503917063303789922179554139347601449117064476013e-01,-4.333950675861962550483412470736510613278369419277e-01,1.000000000000000020816681711721685132943093776703e-02
1.600000000000000033306690738754696212708950042725e-01,8.314582717332366635612679595102036955722724087536e-01,-4.622910331517737800386541602293277719581965357065e-01,1.000000000000000020816681711721685132943093776703e-02
1.700000000000000035388358909926864726003259420395e-01,8.116905817356463824366677450861118359171086922288e-01,-4.902417397533502521275727836780333745991811156273e-01,1.000000000000000020816681711721685132943093776703e-02
1.800000000000000037470027081099033239297568798065e-01,7.911331121083736155237542408968920426559634506702e-01,-5.172359372268550797542910335558019596646772697568e-01,1.000000000000000020816681711721685132943093776703e-02
1.900000000000000039551695252271201752591878175735e-01,7.698296537287503724751244749135992151423124596477e-01,-5.432639837534952601612488198856709686879185028374e-01,1.000000000000000020816681711721685132943093776703e-02
2.000000000000000041633363423443370265886187553406e-01,7.478232761811953895861489194363258548037265427411e-01,-5.683177803160127130027018393931825812614988535643e-01,1.000000000000000020816681711721685132943093776703e-02
2.100000000000000043715031594615538779180496931076e-01,7.251562948497765434432808795417457758958335034549e-01,-5.923907040778488633514520245171297574415802955627e-01,1.000000000000000020816681711721685132943093776703e-02
2.200000000000000045796699765787707292474806308746e-01,7.018702416657299729537897170494886722735827788711e-01,-6.154775410406661041197440287220388199784792959690e-01,1.000000000000000020816681711721685132943093776703e-02
2.300000000000000047878367936959875805769115686417e-01,6.780058396182210798670657314612952859533834271133e-01,-6.375744183357836655963446492734192361240275204182e-01,1.000000000000000020816681711721685132943093776703e-02
2.400000000000000049960036108132044319063425064087e-01,6.536029810859590717078866639599965537854586727917e-01,-6.586787365002046873191550446779984895329107530415e-01,1.000000000000000020816681711721685132943093776703e-02
2.500000000000000052041704279304212832357734441757e-01,6.287007100006796429868087539016840992189827375114e-01,-6.787891020786511042791819270370012873172527179122e-01,1.000000000000000020816681711721685132943093776703e-02
2.600000000000000054123372450476381345652043819427e-01,6.033372078110606900056347989824701016914332285523e-01,-6.979052608799799072448327708073634312313515692949e-01,1.000000000000000020816681711721685132943093776703e-02
2.700000000000000056205040621648549858946353197098e-01,5.775497831773557740639261914861180002844776026905e-01,-7.160280322001051560125428618874821040662936866283e-01,1.000000000000000020816681711721685132943093776703e-02
2.800000000000000058286708792820718372240662574768e-01,5.513748652928952699689597871657298355785314925015e-01,-7.331592443046457017118665289157064535174868069589e-01,1.000000000000000020816681711721685132943093776703e-02
2.900000000000000060368376963992886885534971952438e-01,5.248480006985488171764031584132226271321997046471e-01,-7.493016714434786228280632736087341072561684995890e-01,1.000000000000000020816681711721685132943093776703e-02
3.000000000000000062450045135165055398829281330109e-01,4.980038534301596649860131155174158834597619716078e-01,-7.644589726466877166715513380879087890207301825285e-01,1.000000000000000020816681711721685132943093776703e-02
3.100000000000000064531713306337223912123590707779e-01,4.708762083167131635714607734710668296429503243417e-01,-7.786356325275016359611923721928405939252115786076e-01,1.000000000000000020816681711721685132943093776703e-02
3.200000000000000066613381477509392425417900085449e-01,4.434979772284213731371824845917117841054277960211e-01,-7.918369042931241913777472285485004022120847366750e-01,1.000000000000000020816681711721685132943093776703e-02
3.300000000000000068695049648681560938712209463120e-01,4.159012080588041728899592608392765669123036786914e-01,-8.040687551392356781365666762440014281310141086578e-01,1.000000000000000020816681711721685132943093776703e-02
3.400000000000000070776717819853729452006518840790e-01,3.881170962130175235062917726835962639597710222006e-01,-8.153378141787133920391321406651030656576040200889e-01,1.000000000000000020816681711721685132943093776703e-02
3.500000000000000072858385991025897965300828218460e-01,3.601759983659025212852835412524754588048381265253e-01,-8.256513230300659091000919920233513948915060609579e-01,1.000000000000000020816681711721685132943093776703e-02
3.600000000000000074940054162198066478595137596130e-01,3.321074482472777456205405288702792176991351880133e-01,-8.350170891664439911370766689291400552974664606154e-01,1.000000000000000020816681711721685132943093776703e-02
3.700000000000000077021722333370234991889446973801e-01,3.039401742086420342794407523090427503120736218989e-01,-8.434434421020885671855908671812329657768714241683e-01,1.000000000000000020816681711721685132943093776703e-02
3.800000000000000079103390504542403505183756351471e-01,2.757021183244656680995984116000485641961859073490e-01,-8.509391924698753404700778124603033347739255987108e-01,1.000000000000000020816681711721685132943093776703e-02
3.900000000000000081185058675714572018478065729141e-01,2.474204567823993835683649838985687097192567307502e-01,-8.575135940213558456745104874308083253708900883794e-01,1.000000000000000020816681711721685132943093776703e-02
4.000000000000000083266726846886740531772375106812e-01,2.191216213198038209695062833448631067767564672977e-01,-8.631763085594861710839707791276254056356265209615e-01,1.000000000000000020816681711721685132943093776703e-02
4.100000000000000085348395018058909045066684484482e-01,1.908313214687872413417206798880165763421246083453e-01,-8.679373737941602481101195654122903988536563701928e-01,1.000000000000000020816681711721685132943093776703e-02
4.200000000000000087430063189231077558360993862152e-01,1.625745673782378785321087177884180619003018364310e-01,-8.718071740917842021921339845658138756334665231407e-01,1.000000000000000020816681711721685132943093776703e-02
4.300000000000000089511731360403246071655303239822e-01,1.343756929889627120343993313400510203337034909055e-01,-8.747964140724806561761131562526827565307030454278e-01,1.000000000000000020816681711721685132943093776703e-02
4.400000000000000091593399531575414584949612617493e-01,1.062583793468236112035704872547103860824790899642e-01,-8.769160949921185574146460794953128470297087915242e-01,1.000000000000000020816681711721685132943093776703e-02
4.500000000000000093675067702747583098243921995163e-01,7.824567784853530954538528702224553512678539846092e-02,-8.781774938312317125687495034114249392587225884199e-01,1.000000000000000020816681711721685132943093776703e-02
4.600000000000000095756735873919751611538231372833e-01,5.036003322541203001532503572001964187165867770091e-02,-8.785921449990126231373473164598664197910693474114e-01,1.000000000000000020816681711721685132943093776703e-02
4.700000000000000097838404045091920124832540750504e-01,2.262330608168901570737506761393786902658575854730e-02,-8.781718245479327648699008346255823198589496314526e-01,1.000000000000000020816681711721685132943093776703e-02
4.800000000000000099920072216264088638126850128174e-01,-4.943205184016813222714747250163824787705380003899e-03,-8.769285367831245593499278623283998967963270843029e-01,1.000000000000000020816681711721685132943093776703e-02
4.900000000000000102001740387436257151421159505844e-01,-3.231874323311236077053238899270404260732902912423e-02,-8.748745031404373021736292637129395188821945339441e-01,1.000000000000000020816681711721685132943093776703e-02
5.000000000000000104083408558608425664715468883514e-01,-5.948307156347664709493969562026371988849859917536e-02,-8.720221531980195387085720570841118615135201252997e-01,1.000000000000000020816681711721685132943093776703e-02
5.100000000000000106165076729780594178009778261185e-01,-8.641645534098551517123397436304088614633656106889e-02,-8.683841176783525457106606426638251150507130660117e-01,1.000000000000000020816681711721685132943093776703e-02
5.200000000000000108246744900952762691304087638855e-01,-1.130996434057634049879853196940437953799118986353e-01,-8.639732232908322336994814960586808183506946079433e-01,1.000000000000000020816681711721685132943093776703e-02
5.300000000000000110328413072124931204598397016525e-01,-1.395138515592561457510359032574420723449293291196e-01,-8.588024892592392550141541796016042553674196824431e-01,1.000000000000000020816681711721685132943093776703e-02
5.400000000000000112410081243297099717892706394196e-01,-1.656407472245476560112394798229829007141233887523e-01,-8.528851253737204706015934130292066583933774381876e-01,1.000000000000000020816681711721685132943093776703e-02
5.500000000000000114491749414469268231187015771866e-01,-1.914624355586117927731544530178808827258762903512e-01,-8.462345314032023697674821105518816466428688727319e-01,1.000000000000000020816681711721685132943093776703e-02
5.600000000000000116573417585641436744481325149536e-01,-2.169614470814478472958678964555012669279676629230e-01,-8.388642977014444024243949860064617496391292661428e-01,1.000000000000000020816681711721685132943093776703e-02
5.700000000000000118655085756813605257775634527206e-01,-2.421207268733407141919492314152684286909789079800e-01,-8.307882068381958639473675032327548706234665587544e-01,1.000000000000000020816681711721685132943093776703e-02
5.800000000000000120736753927985773771069943904877e-01,-2.669236253778590283835918384180985185594181530178e-01,-8.220202360861250581031134387899328430648893117905e-01,1.000000000000000020816681711721685132943093776703e-02
5.900000000000000122818422099157942284364253282547e-01,-2.913538908347000943362820057913609161914791911840e-01,-8.125745605943272446359051941477957825554767623544e-01,1.000000000000000020816681711721685132943093776703e-02
6.000000000000000124900090270330110797658562660217e-01,-3.153956633531528264884156304015405680729600135237e-01,-8.024655570802736326979642811352277931291610002518e-01,1.000000000000000020816681711721685132943093776703e-02
6.100000000000000126981758441502279310952872037888e-01,-3.390334706238235682677472498935955513843509834260e-01,-7.917078078740239275136805763288805337651865556836e-01,1.000000000000000020816681711721685132943093776703e-02
6.200000000000000129063426612674447824247181415558e-01,-3.622522252534004604646554470459562935502617619932e-01,-7.803161051513769031298152489828368061353103257716e-01,1.000000000000000020816681711721685132943093776703e-02
6.300000000000000131145094783846616337541490793228e-01,-3.850372236946678257418514440546530863684893120080e-01,-7.683054551963642121530616291291693187304190360010e-01,1.000000000000000020816681711721685132943093776703e-02
6.400000000000000133226762955018784850835800170898e-01,-4.073741467317729722085600796432913739408832043409e-01,-7.556910825380882864698434131511817213322501629591e-01,1.000000000000000020816681711721685132943093776703e-02
6.500000000000000135308431126190953364130109548569e-01,-4.292490614689464669231130228288506600620166864246e-01,-7.424884338123500140526472845792227417405229061842e-01,1.000000000000000020816681711721685132943093776703e-02
6.600000000000000137390099297363121877424418926239e-01,-4.506484247595382834779796643598359651150531135499e-01,-7.287131812047874700123857583111686153642949648201e-01,1.000000000000000020816681711721685132943093776703e-02
6.700000000000000139471767468535290390718728303909e-01,-4.715590880014134899072663492658463724183093290776e-01,-7.143812253393313204947838446212671215107548050582e-01,1.000000000000000020816681711721685132943093776703e-02
6.800000000000000141553435639707458904013037681580e-01,-4.919683032145113893147773953540280444940435700119e-01,-6.995086974836491843757375896917238833339069969952e-01,1.000000000000000020816681711721685132943093776703e-02
6.900000000000000143635103810879627417307347059250e-01,-5.118637303067716591391256297782774709048680961132e-01,-6.841119609518686252758352950298359473890741355717e-01,1.000000000000000020816681711721685132943093776703e-02
7.000000000000000145716771982051795930601656436920e-01,-5.312334454257311127777646531100685933779459446669e-01,-6.682076115941990623382264191665314001511433161795e-01,1.000000000000000020816681711721685132943093776703e-02
7.100000000000000147798440153223964443895965814590e-01,-5.500659502849562041554287716849103162530809640884e-01,-6.518124772730728782536152587923083956411574035883e-01,1.000000000000000020816681711721685132943093776703e-02
7.200000000000000149880108324396132957190275192261e-01,-5.683501823471591732567578802992613873357186093926e-01,-6.349436162360445688843287037617102441799943335354e-01,1.000000000000000020816681711721685132943093776703e-02
7.300000000000000151961776495568301470484584569931e-01,-5.860755257394076778881299161216844595401198603213e-01,-6.176183143068660533051873751109184240704053081572e-01,1.000000000000000020816681711721685132943093776703e-02
7.400000000000000154043444666740469983778893947601e-01,-6.032318227703335737784583192588883093776530586183e-01,-5.998540808278310473736043284542773790235514752567e-01,1.000000000000000020816681711721685132943093776703e-02
7.500000000000000156125112837912638497073203325272e-01,-6.198093859147267101900036223582901584450155496597e-01,-5.816686432985793272446711776879624267166946083307e-01,1.000000000000000020816681711721685132943093776703e-02
7.600000000000000158206781009084807010367512702942e-01,-6.357990101274092998532433407277153492032084614038e-01,-5.630799406689933740786241367359821197169367223978e-01,1.000000000000000020816681711721685132943093776703e-02
7.700000000000000160288449180256975523661822080612e-01,-6.511919853458642526954081031220766817568801343441e-01,-5.441061152565193634127703459224534299210063181818e-01,1.000000000000000020816681711721685132943093776703e-02
7.800000000000000162370117351429144036956131458282e-01,-6.659801090397678762443887945376985726397833786905e-01,-5.247655032711098080150033395874231700872769579291e-01,1.000000000000000020816681711721685132943093776703e-02
7.900000000000000164451785522601312550250440835953e-01,-6.801556986653760632395571139596768261981196701527e-01,-5.050766239439192851253673799405419231334235519171e-01,1.000000000000000020816681711721685132943093776703e-02
8.000000000000000166533453693773481063544750213623e-01,-6.937116038836464981527478446121648403277504257858e-01,-4.850581672687861848377709889090780848164285998791e-01,1.000000000000000020816681711721685132943093776703e-02
8.100000000000000168615121864945649576839059591293e-01,-7.066412184030503159325696527215399100896320305765e-01,-4.647289803782978084021118569957309318851912394166e-01,1.000000000000000020816681711721685132943093776703e-02
8.200000000000000170696790036117818090133368968964e-01,-7.189384913112268843198536527605568835497251711786e-01,-4.441080525887569299290855151518542243138654157519e-01,1.000000000000000020816681711721685132943093776703e-02
8.300000000000000172778458207289986603427678346634e-01,-7.305979377639455373178757613406020254842587746680e-01,-4.232144991605380839017839372795393160231469664723e-01,1.000000000000000020816681711721685132943093776703e-02
8.400000000000000174860126378462155116721987724304e-01,-7.416146489052270630165653031440342601854354143143e-01,-4.020675438320350837684020312012833642256737221032e-01,1.000000000000000020816681711721685132943093776703e-02
8.500000000000000176941794549634323630016297101974e-01,-7.519843008989028143107882784512696616729954257607e-01,-3.806865001965536648769958261162571488966932520270e-01,1.000000000000000020816681711721685132943093776703e-02
8.600000000000000179023462720806492143310606479645e-01,-7.617031629592962141601410197555566128357895649970e-01,-3.590907520019945084065095958214541838060540612787e-01,1.000000000000000020816681711721685132943093776703e-02
8.700000000000000181105130891978660656604915857315e-01,-7.707681042770346864370992201465071502752834931016e-01,-3.372997324629073010099963164654113256801792886108e-01,1.000000000000000020816681711721685132943093776703e-02
8.800000000000000183186799063150829169899225234985e-01,-7.791765997451636532227306486397822027356596663594e-01,-3.153329026833877205611856436862083796768274623901e-01,1.000000000000000020816681711721685132943093776703e-02
8.900000000000000185268467234322997683193534612656e-01,-7.869267344006522961821770145718346611829474568367e-01,-2.932097292972561384573077641890748168407299090177e-01,1.000000000000000020816681711721685132943093776703e-02
