time,u0,u1,tau
0.000000e+00,1.000000e+00,1.000000e-01,1.000000e-02
1.000000e-02,9.905055e-01,1.904365e-02,1.000000e-02
2.000000e-02,9.760398e-01,-5.756432e-02,1.000000e-02
3.000000e-02,9.571038e-01,-1.299879e-01,1.000000e-02
4.000000e-02,9.341463e-01,-1.983476e-01,1.000000e-02
5.000000e-02,9.075740e-01,-2.627371e-01,1.000000e-02
6.000000e-02,8.777597e-01,-3.232335e-01,1.000000e-02
7.000000e-02,8.450473e-01,-3.799048e-01,1.000000e-02
8.000000e-02,8.097561e-01,-4.328142e-01,1.000000e-02
9.000000e-02,7.721835e-01,-4.820232e-01,1.000000e-02
1.000000e-01,7.326075e-01,-5.275937e-01,1.000000e-02
1.100000e-01,6.912885e-01,-5.695889e-01,1.000000e-02
1.200000e-01,6.484702e-01,-6.080745e-01,1.000000e-02
1.300000e-01,6.043817e-01,-6.431188e-01,1.000000e-02
1.400000e-01,5.592375e-01,-6.747926e-01,1.000000e-02
1.500000e-01,5.132391e-01,-7.031697e-01,1.000000e-02
1.600000e-01,4.665755e-01,-7.283264e-01,1.000000e-02
1.700000e-01,4.194241e-01,-7.503411e-01,1.000000e-02
1.800000e-01,3.719510e-01,-7.692943e-01,1.000000e-02
1.900000e-01,3.243121e-01,-7.852683e-01,1.000000e-02
2.000000e-01,2.766533e-01,-7.983468e-01,1.000000e-02
2.100000e-01,2.291115e-01,-8.086145e-01,1.000000e-02
2.200000e-01,1.818147e-01,-8.161572e-01,1.000000e-02
2.300000e-01,1.348830e-01,-8.210611e-01,1.000000e-02
2.400000e-01,8.842858e-02,-8.234131e-01,1.000000e-02
2.500000e-01,4.255672e-02,-8.233003e-01,1.000000e-02
2.600000e-01,-2.634191e-03,-8.208097e-01,1.000000e-02
2.700000e-01,-4.705202e-02,-8.160285e-01,1.000000e-02
2.800000e-01,-9.061055e-02,-8.090438e-01,1.000000e-02
2.900000e-01,-1.332291e-01,-7.999426e-01,1.000000e-02
3.000000e-01,-1.748324e-01,-7.888117e-01,1.000000e-02
3.100000e-01,-2.153499e-01,-7.757374e-01,1.000000e-02
3.200000e-01,-2.547159e-01,-7.608063e-01,1.000000e-02
3.300000e-01,-2.928692e-01,-7.441043e-01,1.000000e-02
3.400000e-01,-3.297526e-01,-7.257173e-01,1.000000e-02
3.500000e-01,-3.653134e-01,-7.057311e-01,1.000000e-02
3.600000e-01,-3.995027e-01,-6.842310e-01,1.000000e-02
3.700000e-01,-4.322753e-01,-6.613025e-01,1.000000e-02
3.800000e-01,-4.635900e-01,-6.370306e-01,1.000000e-02
3.900000e-01,-4.934091e-01,-6.115003e-01,1.000000e-02
4.000000e-01,-5.216987e-01,-5.847964e-01,1.000000e-02
4.100000e-01,-5.484283e-01,-5.570036e-01,1.000000e-02
4.200000e-01,-5.735710e-01,-5.282061e-01,1.000000e-02
4.300000e-01,-5.971036e-01,-4.984880e-01,1.000000e-02
4.400000e-01,-6.190063e-01,-4.679332e-01,1.000000e-02
4.500000e-01,-6.392628e-01,-4.366250e-01,1.000000e-02
4.600000e-01,-6.578603e-01,-4.046463e-01,1.000000e-02
4.700000e-01,-6.747896e-01,-3.720794e-01,1.000000e-02
4.800000e-01,-6.900449e-01,-3.390060e-01,1.000000e-02
4.900000e-01,-7.036240e-01,-3.055069e-01,1.000000e-02
5.000000e-01,-7.155280e-01,-2.716621e-01,1.000000e-02
5.100000e-01,-7.257616e-01,-2.375504e-01,1.000000e-02
5.200000e-01,-7.343325e-01,-2.032495e-01,1.000000e-02
5.300000e-01,-7.412522e-01,-1.688357e-01,1.000000e-02
5.400000e-01,-7.465351e-01,-1.343840e-01,1.000000e-02
5.500000e-01,-7.501989e-01,-9.996748e-02,1.000000e-02
5.600000e-01,-7.522644e-01,-6.565774e-02,1.000000e-02
5.700000e-01,-7.527551e-01,-3.152430e-02,1.000000e-02
5.800000e-01,-7.516978e-01,2.365341e-03,1.000000e-02
5.900000e-01,-7.491216e-01,3.594582e-02,1.000000e-02
6.000000e-01,-7.450584e-01,6.915410e-02,1.000000e-02
6.100000e-01,-7.395424e-01,1.019295e-01,1.000000e-02
6.200000e-01,-7.326101e-01,1.342139e-01,1.000000e-02
6.300000e-01,-7.243001e-01,1.659516e-01,1.000000e-02
6.400000e-01,-7.146528e-01,1.970898e-01,1.000000e-02
6.500000e-01,-7.037105e-01,2.275782e-01,1.000000e-02
6.600000e-01,-6.915171e-01,2.573692e-01,1.000000e-02
6.700000e-01,-6.781176e-01,2.864183e-01,1.000000e-02
6.800000e-01,-6.635584e-01,3.146834e-01,1.000000e-02
6.900000e-01,-6.478870e-01,3.421253e-01,1.000000e-02
7.000000e-01,-6.311515e-01,3.687078e-01,1.000000e-02
7.100000e-01,-6.134010e-01,3.943971e-01,1.000000e-02
7.200000e-01,-5.946847e-01,4.191623e-01,1.000000e-02
7.300000e-01,-5.750526e-01,4.429752e-01,1.000000e-02
7.400000e-01,-5.545547e-01,4.658101e-01,1.000000e-02
7.500000e-01,-5.332411e-01,4.876437e-01,1.000000e-02
7.600000e-01,-5.111618e-01,5.084555e-01,1.000000e-02
7.700000e-01,-4.883669e-01,5.282270e-01,1.000000e-02
7.800000e-01,-4.649060e-01,5.469423e-01,1.000000e-02
7.900000e-01,-4.408284e-01,5.645874e-01,1.000000e-02
8.000000e-01,-4.161830e-01,5.811506e-01,1.000000e-02
8.100000e-01,-3.910182e-01,5.966222e-01,1.000000e-02
8.200000e-01,-3.653819e-01,6.109942e-01,1.000000e-02
8.300000e-01,-3.393211e-01,6.242607e-01,1.000000e-02
8.400000e-01,-3.128825e-01,6.364173e-01,1.000000e-02
8.500000e-01,-2.861119e-01,6.474614e-01,1.000000e-02
8.600000e-01,-2.590544e-01,6.573918e-01,1.000000e-02
8.700000e-01,-2.317544e-01,6.662087e-01,1.000000e-02
8.800000e-01,-2.042555e-01,6.739140e-01,1.000000e-02
8.900000e-01,-1.766006e-01,6.805106e-01,1.000000e-02
9.000000e-01,-1.488318e-01,6.860028e-01,1.000000e-02
9.100000e-01,-1.209905e-01,6.903959e-01,1.000000e-02
9.200000e-01,-9.311738e-02,6.936967e-01,1.000000e-02
9.300000e-01,-6.525227e-02,6.959125e-01,1.000000e-02
9.400000e-01,-3.743441e-02,6.970523e-01,1.000000e-02
9.500000e-01,-9.702283e-03,6.971255e-01,1.000000e-02
9.600000e-01,1.790630e-02,6.961429e-01,1.000000e-02
9.700000e-01,4.535419e-02,6.941160e-01,1.000000e-02
9.800000e-01,7.260493e-02,6.910572e-01,1.000000e-02
9.900000e-01,9.962267e-02,6.869800e-01,1.000000e-02
1.000000e+00,1.263722e-01,6.818986e-01,1.000000e-02
1.010000e+00,1.528190e-01,6.758283e-01,1.000000e-02
1.020000e+00,1.789292e-01,6.687850e-01,1.000000e-02
1.030000e+00,2.046693e-01,6.607857e-01,1.000000e-02
1.040000e+00,2.300068e-01,6.518482e-01,1.000000e-02
1.050000e+00,2.549096e-01,6.419912e-01,1.000000e-02
1.060000e+00,2.793464e-01,6.312344e-01,1.000000e-02
1.070000e+00,3.032864e-01,6.195982e-01,1.000000e-02
1.080000e+00,3.266996e-01,6.071041e-01,1.000000e-02
1.090000e+00,3.495568e-01,5.937743e-01,1.000000e-02
1.100000e+00,3.718294e-01,5.796322e-01,1.000000e-02
1.110000e+00,3.934896e-01,5.647018e-01,1.000000e-02
1.120000e+00,4.145106e-01,5.490083e-01,1.000000e-02
1.130000e+00,4.348662e-01,5.325777e-01,1.000000e-02
1.140000e+00,4.545314e-01,5.154367e-01,1.000000e-02
1.150000e+00,4.734818e-01,4.976133e-01,1.000000e-02
1.160000e+00,4.916942e-01,4.791361e-01,1.000000e-02
1.170000e+00,5.091467e-01,4.600345e-01,1.000000e-02
1.180000e+00,5.258180e-01,4.403389e-01,1.000000e-02
1.190000e+00,5.416883e-01,4.200804e-01,1.000000e-02
1.200000e+00,5.567389e-01,3.992909e-01,1.000000e-02
1.210000e+00,5.709525e-01,3.780030e-01,1.000000e-02
1.220000e+00,5.843128e-01,3.562499e-01,1.000000e-02
1.230000e+00,5.968052e-01,3.340655e-01,1.000000e-02
1.240000e+00,6.084162e-01,3.114842e-01,1.000000e-02
1.250000e+00,6.191340e-01,2.885409e-01,1.000000e-02
1.260000e+00,6.289481e-01,2.652710e-01,1.000000e-02
1.270000e+00,6.378495e-01,2.417100e-01,1.000000e-02
1.280000e+00,6.458308e-01,2.178940e-01,1.000000e-02
1.290000e+00,6.528861e-01,1.938591e-01,1.000000e-02
1.300000e+00,6.590112e-01,1.696415e-01,1.000000e-02
1.310000e+00,6.642032e-01,1.452775e-01,1.000000e-02
1.320000e+00,6.684610e-01,1.208034e-01,1.000000e-02
1.330000e+00,6.717850e-01,9.625523e-02,1.000000e-02
1.340000e+00,6.741771e-01,7.166889e-02,1.000000e-02
1.350000e+00,6.756409e-01,4.707992e-02,1.000000e-02
1.360000e+00,6.761812e-01,2.252352e-02,1.000000e-02
1.370000e+00,6.758046e-01,-1.965613e-03,1.000000e-02
1.380000e+00,6.745190e-01,-2.635331e-02,1.000000e-02
1.390000e+00,6.723337e-01,-5.060603e-02,1.000000e-02
1.400000e+00,6.692594e-01,-7.469092e-02,1.000000e-02
1.410000e+00,6.653080e-01,-9.857586e-02,1.000000e-02
1.420000e+00,6.604927e-01,-1.222296e-01,1.000000e-02
1.430000e+00,6.548280e-01,-1.456216e-01,1.000000e-02
1.440000e+00,6.483293e-01,-1.687225e-01,1.000000e-02
1.450000e+00,6.410133e-01,-1.915037e-01,1.000000e-02
1.460000e+00,6.328973e-01,-2.139377e-01,1.000000e-02
1.470000e+00,6.239999e-01,-2.359980e-01,1.000000e-02
1.480000e+00,6.143403e-01,-2.576591e-01,1.000000e-02
1.490000e+00,6.039386e-01,-2.788968e-01,1.000000e-02
1.500000e+00,5.928154e-01,-2.996876e-01,1.000000e-02
1.510000e+00,5.809922e-01,-3.200095e-01,1.000000e-02
1.520000e+00,5.684908e-01,-3.398415e-01,1.000000e-02
1.530000e+00,5.553337e-01,-3.591635e-01,1.000000e-02
1.540000e+00,5.415435e-01,-3.779568e-01,1.000000e-02
1.550000e+00,5.271434e-01,-3.962036e-01,1.000000e-02
1.560000e+00,5.121569e-01,-4.138871e-01,1.000000e-02
1.570000e+00,4.966076e-01,-4.309919e-01,1.000000e-02
1.580000e+00,4.805194e-01,-4.475032e-01,1.000000e-02
1.590000e+00,4.639163e-01,-4.634075e-01,1.000000e-02
1.600000e+00,4.468223e-01,-4.786921e-01,1.000000e-02
1.610000e+00,4.292615e-01,-4.933454e-01,1.000000e-02
1.620000e+00,4.112581e-01,-5.073565e-01,1.000000e-02
1.630000e+00,3.928361e-01,-5.207155e-01,1.000000e-02
1.640000e+00,3.740197e-01,-5.334135e-01,1.000000e-02
1.650000e+00,3.548326e-01,-5.454421e-01,1.000000e-02
1.660000e+00,3.352989e-01,-5.567938e-01,1.000000e-02
1.670000e+00,3.154423e-01,-5.674619e-01,1.000000e-02
1.680000e+00,2.952863e-01,-5.774404e-01,1.000000e-02
1.690000e+00,2.748545e-01,-5.867238e-01,1.000000e-02
1.700000e+00,2.541702e-01,-5.953075e-01,1.000000e-02
1.710000e+00,2.332566e-01,-6.031872e-01,1.000000e-02
1.720000e+00,2.121368e-01,-6.103596e-01,1.000000e-02
1.730000e+00,1.908336e-01,-6.168215e-01,1.000000e-02
1.740000e+00,1.693698e-01,-6.225706e-01,1.000000e-02
1.750000e+00,1.477681e-01,-6.276049e-01,1.000000e-02
1.760000e+00,1.260508e-01,-6.319230e-01,1.000000e-02
1.770000e+00,1.042406e-01,-6.355240e-01,1.000000e-02
1.780000e+00,8.235952e-02,-6.384074e-01,1.000000e-02
1.790000e+00,6.042988e-02,-6.405732e-01,1.000000e-02
1.800000e+00,3.847374e-02,-6.420219e-01,1.000000e-02
1.810000e+00,1.651316e-02,-6.427544e-01,1.000000e-02
1.820000e+00,-5.429894e-03,-6.427722e-01,1.000000e-02
1.830000e+00,-2.733351e-02,-6.420769e-01,1.000000e-02
1.840000e+00,-4.917580e-02,-6.406711e-01,1.000000e-02
1.850000e+00,-7.093493e-02,-6.385576e-01,1.000000e-02
1.860000e+00,-9.258908e-02,-6.357395e-01,1.000000e-02
1.870000e+00,-1.141165e-01,-6.322207e-01,1.000000e-02
1.880000e+00,-1.354953e-01,-6.280056e-01,1.000000e-02
1.890000e+00,-1.567039e-01,-6.230989e-01,1.000000e-02
1.900000e+00,-1.777206e-01,-6.175062e-01,1.000000e-02
1.910000e+00,-1.985236e-01,-6.112334e-01,1.000000e-02
1.920000e+00,-2.190913e-01,-6.042871e-01,1.000000e-02
1.930000e+00,-2.394021e-01,-5.966745e-01,1.000000e-02
1.940000e+00,-2.594346e-01,-5.884034e-01,1.000000e-02
1.950000e+00,-2.791674e-01,-5.794823e-01,1.000000e-02
1.960000e+00,-2.985790e-01,-5.699205e-01,1.000000e-02
1.970000e+00,-3.176484e-01,-5.597278e-01,1.000000e-02
1.980000e+00,-3.363545e-01,-5.489148e-01,1.000000e-02
1.990000e+00,-3.546765e-01,-5.374928e-01,1.000000e-02
2.000000e+00,-3.725938e-01,-5.254739e-01,1.000000e-02
2.010000e+00,-3.900862e-01,-5.128709e-01,1.000000e-02
2.020000e+00,-4.071335e-01,-4.996976e-01,1.000000e-02
2.030000e+00,-4.237160e-01,-4.859682e-01,1.000000e-02
2.040000e+00,-4.398146e-01,-4.716980e-01,1.000000e-02
2.050000e+00,-4.554103e-01,-4.569029e-01,1.000000e-02
2.060000e+00,-4.704847e-01,-4.415996e-01,1.000000e-02
2.070000e+00,-4.850200e-01,-4.258058e-01,1.000000e-02
2.080000e+00,-4.989989e-01,-4.095397e-01,1.000000e-02
2.090000e+00,-5.124047e-01,-3.928203e-01,1.000000e-02
2.100000e+00,-5.252215e-01,-3.756674e-01,1.000000e-02
2.110000e+00,-5.374339e-01,-3.581015e-01,1.000000e-02
2.120000e+00,-5.490275e-01,-3.401437e-01,1.000000e-02
2.130000e+00,-5.599887e-01,-3.218159e-01,1.000000e-02
2.140000e+00,-5.703044e-01,-3.031404e-01,1.000000e-02
2.150000e+00,-5.799629e-01,-2.841402e-01,1.000000e-02
2.160000e+00,-5.889532e-01,-2.648388e-01,1.000000e-02
2.170000e+00,-5.972651e-01,-2.452602e-01,1.000000e-02
2.180000e+00,-6.048897e-01,-2.254289e-01,1.000000e-02
2.190000e+00,-6.118189e-01,-2.053695e-01,1.000000e-02
2.200000e+00,-6.180459e-01,-1.851072e-01,1.000000e-02
2.210000e+00,-6.235647e-01,-1.646674e-01,1.000000e-02
2.220000e+00,-6.283706e-01,-1.440756e-01,1.000000e-02
2.230000e+00,-6.324599e-01,-1.233576e-01,1.000000e-02
2.240000e+00,-6.358301e-01,-1.025390e-01,1.000000e-02
2.250000e+00,-6.384796e-01,-8.164570e-02,1.000000e-02
2.260000e+00,-6.404082e-01,-6.070346e-02,1.000000e-02
2.270000e+00,-6.416165e-01,-3.973790e-02,1.000000e-02
2.280000e+00,-6.421064e-01,-1.877450e-02,1.000000e-02
2.290000e+00,-6.418807e-01,2.161497e-03,1.000000e-02
2.300000e+00,-6.409435e-01,2.304513e-02,1.000000e-02
2.310000e+00,-6.392995e-01,4.385178e-02,1.000000e-02
2.320000e+00,-6.369548e-01,6.455721e-02,1.000000e-02
2.330000e+00,-6.339163e-01,8.513762e-02,1.000000e-02
2.340000e+00,-6.301916e-01,1.055697e-01,1.000000e-02
2.350000e+00,-6.257896e-01,1.258307e-01,1.000000e-02
2.360000e+00,-6.207196e-01,1.458984e-01,1.000000e-02
2.370000e+00,-6.149920e-01,1.657511e-01,1.000000e-02
2.380000e+00,-6.086177e-01,1.853679e-01,1.000000e-02
2.390000e+00,-6.016086e-01,2.047284e-01,1.000000e-02
2.400000e+00,-5.939769e-01,2.238131e-01,1.000000e-02
2.410000e+00,-5.857356e-01,2.426029e-01,1.000000e-02
2.420000e+00,-5.768983e-01,2.610795e-01,1.000000e-02
2.430000e+00,-5.674788e-01,2.792256e-01,1.000000e-02
2.440000e+00,-5.574917e-01,2.970242e-01,1.000000e-02
2.450000e+00,-5.469518e-01,3.144594e-01,1.000000e-02
2.460000e+00,-5.358742e-01,3.315157e-01,1.000000e-02
2.470000e+00,-5.242746e-01,3.481785e-01,1.000000e-02
2.480000e+00,-5.121686e-01,3.644340e-01,1.000000e-02
2.490000e+00,-4.995722e-01,3.802688e-01,1.000000e-02
2.500000e+00,-4.865017e-01,3.956705e-01,1.000000e-02
2.510000e+00,-4.729733e-01,4.106273e-01,1.000000e-02
2.520000e+00,-4.590035e-01,4.251279e-01,1.000000e-02
2.530000e+00,-4.446089e-01,4.391617e-01,1.000000e-02
2.540000e+00,-4.298061e-01,4.527187e-01,1.000000e-02
2.550000e+00,-4.146116e-01,4.657897e-01,1.000000e-02
2.560000e+00,-3.990422e-01,4.783658e-01,1.000000e-02
2.570000e+00,-3.831145e-01,4.904386e-01,1.000000e-02
2.580000e+00,-3.668451e-01,5.020004e-01,1.000000e-02
2.590000e+00,-3.502505e-01,5.130440e-01,1.000000e-02
2.600000e+00,-3.333474e-01,5.235624e-01,1.000000e-02
2.610000e+00,-3.161523e-01,5.335494e-01,1.000000e-02
2.620000e+00,-2.986816e-01,5.429990e-01,1.000000e-02
2.630000e+00,-2.809516e-01,5.519055e-01,1.000000e-02
2.640000e+00,-2.629788e-01,5.602637e-01,1.000000e-02
2.650000e+00,-2.447794e-01,5.680688e-01,1.000000e-02
2.660000e+00,-2.263696e-01,5.753163e-01,1.000000e-02
2.670000e+00,-2.077657e-01,5.820018e-01,1.000000e-02
2.680000e+00,-1.889838e-01,5.881216e-01,1.000000e-02
2.690000e+00,-1.700400e-01,5.936720e-01,1.000000e-02
2.700000e+00,-1.509505e-01,5.986495e-01,1.000000e-02
2.710000e+00,-1.317315e-01,6.030511e-01,1.000000e-02
2.720000e+00,-1.123990e-01,6.068740e-01,1.000000e-02
2.730000e+00,-9.296937e-02,6.101155e-01,1.000000e-02
2.740000e+00,-7.345869e-02,6.127734e-01,1.000000e-02
2.750000e+00,-5.388330e-02,6.148455e-01,1.000000e-02
2.760000e+00,-3.425956e-02,6.163301e-01,1.000000e-02
2.770000e+00,-1.460391e-02,6.172257e-01,1.000000e-02
2.780000e+00,5.067105e-03,6.175308e-01,1.000000e-02
2.790000e+00,2.473682e-02,6.172446e-01,1.000000e-02
2.800000e+00,4.438846e-02,6.163663e-01,1.000000e-02
2.810000e+00,6.400510e-02,6.148956e-01,1.000000e-02
2.820000e+00,8.356970e-02,6.128324e-01,1.000000e-02
2.830000e+00,1.030650e-01,6.101770e-01,1.000000e-02
2.840000e+00,1.224738e-01,6.069301e-01,1.000000e-02
2.850000e+00,1.417784e-01,6.030927e-01,1.000000e-02
2.860000e+00,1.609613e-01,5.986664e-01,1.000000e-02
2.870000e+00,1.800045e-01,5.936531e-01,1.000000e-02
2.880000e+00,1.988902e-01,5.880551e-01,1.000000e-02
2.890000e+00,2.176002e-01,5.818753e-01,1.000000e-02
2.900000e+00,2.361164e-01,5.751172e-01,1.000000e-02
2.910000e+00,2.544203e-01,5.677847e-01,1.000000e-02
2.920000e+00,2.724935e-01,5.598824e-01,1.000000e-02
2.930000e+00,2.903176e-01,5.514154e-01,1.000000e-02
2.940000e+00,3.078739e-01,5.423894e-01,1.000000e-02
2.950000e+00,3.251438e-01,5.328110e-01,1.000000e-02
2.960000e+00,3.421089e-01,5.226871e-01,1.000000e-02
2.970000e+00,3.587504e-01,5.120257e-01,1.000000e-02
2.980000e+00,3.750499e-01,5.008353e-01,1.000000e-02
2.990000e+00,3.909891e-01,4.891251e-01,1.000000e-02
3.000000e+00,4.065498e-01,4.769051e-01,1.000000e-02
3.010000e+00,4.217138e-01,4.641861e-01,1.000000e-02
3.020000e+00,4.364635e-01,4.509798e-01,1.000000e-02
3.030000e+00,4.507813e-01,4.372983e-01,1.000000e-02
3.040000e+00,4.646500e-01,4.231548e-01,1.000000e-02
3.050000e+00,4.780528e-01,4.085632e-01,1.000000e-02
3.060000e+00,4.909734e-01,3.935381e-01,1.000000e-02
3.070000e+00,5.033958e-01,3.780950e-01,1.000000e-02
3.080000e+00,5.153048e-01,3.622499e-01,1.000000e-02
3.090000e+00,5.266856e-01,3.460198e-01,1.000000e-02
3.100000e+00,5.375239e-01,3.294221e-01,1.000000e-02
3.110000e+00,5.478064e-01,3.124753e-01,1.000000e-02
3.120000e+00,5.575202e-01,2.951980e-01,1.000000e-02
3.130000e+00,5.666534e-01,2.776098e-01,1.000000e-02
3.140000e+00,5.751947e-01,2.597308e-01,1.000000e-02
3.150000e+00,5.831339e-01,2.415815e-01,1.000000e-02
3.160000e+00,5.904614e-01,2.231829e-01,1.000000e-02
3.170000e+00,5.971686e-01,2.045565e-01,1.000000e-02
3.180000e+00,6.032480e-01,1.857242e-01,1.000000e-02
3.190000e+00,6.086928e-01,1.667080e-01,1.000000e-02
3.200000e+00,6.134974e-01,1.475305e-01,1.000000e-02
3.210000e+00,6.176569e-01,1.282142e-01,1.000000e-02
3.220000e+00,6.211678e-01,1.087820e-01,1.000000e-02
3.230000e+00,6.240271e-01,8.925666e-02,1.000000e-02
3.240000e+00,6.262333e-01,6.966116e-02,1.000000e-02
3.250000e+00,6.277856e-01,5.001836e-02,1.000000e-02
3.260000e+00,6.286842e-01,3.035106e-02,1.000000e-02
3.270000e+00,6.289304e-01,1.068194e-02,1.000000e-02
3.280000e+00,6.285264e-01,-8.966555e-03,1.000000e-02
3.290000e+00,6.274753e-01,-2.857218e-02,1.000000e-02
3.300000e+00,6.257812e-01,-4.811302e-02,1.000000e-02
3.310000e+00,6.234490e-01,-6.756747e-02,1.000000e-02
3.320000e+00,6.204844e-01,-8.691434e-02,1.000000e-02
3.330000e+00,6.168941e-01,-1.061329e-01,1.000000e-02
3.340000e+00,6.126853e-01,-1.252027e-01,1.000000e-02
3.350000e+00,6.078663e-01,-1.441040e-01,1.000000e-02
3.360000e+00,6.024458e-01,-1.628176e-01,1.000000e-02
3.370000e+00,5.964332e-01,-1.813248e-01,1.000000e-02
3.380000e+00,5.898387e-01,-1.996072e-01,1.000000e-02
3.390000e+00,5.826727e-01,-2.176475e-01,1.000000e-02
3.400000e+00,5.749466e-01,-2.354287e-01,1.000000e-02
3.410000e+00,5.666717e-01,-2.529344e-01,1.000000e-02
3.420000e+00,5.578603e-01,-2.701490e-01,1.000000e-02
3.430000e+00,5.485247e-01,-2.870574e-01,1.000000e-02
3.440000e+00,5.386777e-01,-3.036452e-01,1.000000e-02
3.450000e+00,5.283322e-01,-3.198985e-01,1.000000e-02
3.460000e+00,5.175017e-01,-3.358043e-01,1.000000e-02
3.470000e+00,5.061997e-01,-3.513499e-01,1.000000e-02
3.480000e+00,4.944399e-01,-3.665234e-01,1.000000e-02
3.490000e+00,4.822361e-01,-3.813133e-01,1.000000e-02
3.500000e+00,4.696023e-01,-3.957090e-01,1.000000e-02
3.510000e+00,4.565527e-01,-4.097000e-01,1.000000e-02
3.520000e+00,4.431013e-01,-4.232767e-01,1.000000e-02
3.530000e+00,4.292624e-01,-4.364299e-01,1.000000e-02
3.540000e+00,4.150501e-01,-4.491507e-01,1.000000e-02
3.550000e+00,4.004787e-01,-4.614309e-01,1.000000e-02
3.560000e+00,3.855623e-01,-4.732627e-01,1.000000e-02
3.570000e+00,3.703150e-01,-4.846385e-01,1.000000e-02
3.580000e+00,3.547511e-01,-4.955514e-01,1.000000e-02
3.590000e+00,3.388847e-01,-5.059946e-01,1.000000e-02
3.600000e+00,3.227297e-01,-5.159618e-01,1.000000e-02
3.610000e+00,3.063001e-01,-5.254469e-01,1.000000e-02
3.620000e+00,2.896100e-01,-5.344442e-01,1.000000e-02
3.630000e+00,2.726733e-01,-5.429483e-01,1.000000e-02
3.640000e+00,2.555037e-01,-5.509538e-01,1.000000e-02
3.650000e+00,2.381152e-01,-5.584558e-01,1.000000e-02
3.660000e+00,2.205216e-01,-5.654495e-01,1.000000e-02
3.670000e+00,2.027368e-01,-5.719304e-01,1.000000e-02
3.680000e+00,1.847745e-01,-5.778941e-01,1.000000e-02
3.690000e+00,1.666486e-01,-5.833364e-01,1.000000e-02
3.700000e+00,1.483731e-01,-5.882533e-01,1.000000e-02
3.710000e+00,1.299617e-01,-5.926409e-01,1.000000e-02
3.720000e+00,1.114287e-01,-5.964955e-01,1.000000e-02
3.730000e+00,9.278798e-02,-5.998137e-01,1.000000e-02
3.740000e+00,7.405385e-02,-6.025920e-01,1.000000e-02
3.750000e+00,5.524059e-02,-6.048273e-01,1.000000e-02
3.760000e+00,3.636268e-02,-6.065166e-01,1.000000e-02
