time,u0,u1,tau
0.000000000000000000000000000000000000000000000000e+00,1.000000000000000000000000000000000000000000000000e+00,1.000000000000000055511151231257827021181583404541e-01,1.000000000000000020816681711721685132943093776703e-02
1.000000000000000020816681711721685132943093776703e-02,1.000078203180116127738244480305240813322598114610e+00,5.981674266266578315692174078188614316786697600037e-02,1.000000000000000020816681711721685132943093776703e-02
2.000000000000000041633363423443370265886187553406e-02,9.985952527403051449971828346097169060158194042742e-01,1.997980366500021961068686918161496635093499207869e-02,1.000000000000000020816681711721685132943093776703e-02
3.000000000000000062450045135165055398829281330109e-02,9.955918609825532280621987468727240866428473964334e-01,-1.945858718962945673415705118147744911993868299760e-02,1.000000000000000020816681711721685132943093776703e-02
4.000000000000000083266726846886740531772375106812e-02,9.911090817594173938754643915505226914319791831076e-01,-5.844863903615710250570103659328857759192032972351e-02,1.000000000000000020816681711721685132943093776703e-02
5.000000000000000104083408558608425664715468883514e-02,9.851881505316029224951154819045484600792406126857e-01,-9.694291017871150273874959746311930075535201467574e-02,1.000000000000000020816681711721685132943093776703e-02
6.000000000000000124900090270330110797658562660217e-02,9.778703536553117984663104078624229487104457803071e-01,-1.348962085020086704525467402593363885898725129664e-01,1.000000000000000020816681711721685132943093776703e-02
7.000000000000000145716771982051795930601656436920e-02,9.691969263283393369438380171576596922022872604430e-01,-1.722654867768964208677145294457133672949566971511e-01,1.000000000000000020816681711721685132943093776703e-02
8.000000000000000166533453693773481063544750213623e-02,9.592089778702151530451538996580040929984534159303e-01,-2.090097372659863489050523222001487511079176329076e-01,1.000000000000000020816681711721685132943093776703e-02
9.000000000000000187350135405495166196487843990326e-02,9.479474423810707047030783833907463531431858427823e-01,-2.450898896144050083801928241467038560585933737457e-01,1.000000000000000020816681711721685132943093776703e-02
1.000000000000000020816681711721685132943093776703e-01,9.354530523126175739316578994220208187471143901348e-01,-2.804687155019757467244029269792804370808880776167e-01,1.000000000000000020816681711721685132943093776703e-02
1.100000000000000022898349882893853646237403154373e-01,9.217663320873531419483160043171210418222472071648e-01,-3.151107429595460018617505276727897012278845068067e-01,1.000000000000000020816681711721685132943093776703e-02
1.200000000000000024980018054066022159531712532043e-01,9.069276086129851708770785445601347873889608308673e-01,-3.489821826344478819428417820658339110195811372250e-01,1.000000000000000020816681711721685132943093776703e-02
1.300000000000000027061686225238190672826021909714e-01,8.909770353521772403865980338721897169307339936495e-01,-3.820508676471731677808888610892168458121886942536e-01,1.000000000000000020816681711721685132943093776703e-02
1.400000000000000029143354396410359186120331287384e-01,8.739546265174132891242336773629517665540333837271e-01,-4.142862080308589421175080591552841724478639662266e-01,1.000000000000000020816681711721685132943093776703e-02
1.500000000000000031225022567582527699414640665054e-01,8.559002979616858367657369899283992253913311287761e-01,-4.456591601037625102396666498805188894039019942284e-01,1.000000000000000020816681711721685132943093776703e-02
1.600000000000000033306690738754696212708950042725e-01,8.368539114225428757480769459409231103563797660172e-01,-4.761422105085093261968992583987869693373795598745e-01,1.000000000000000020816681711721685132943093776703e-02
1.700000000000000035388358909926864726003259420395e-01,8.168553189442650833921449882168985823227558284998e-01,-5.057093740758781533943880259762693185621174052358e-01,1.000000000000000020816681711721685132943093776703e-02
1.800000000000000037470027081099033239297568798065e-01,7.959444045444444212900059199000679655000567436218e-01,-5.343362041498831041899143790008253063206211663783e-01,1.000000000000000020816681711721685132943093776703e-02
1.900000000000000039551695252271201752591878175735e-01,7.741611204998292324877193215648674140538787469268e-01,-5.619998135585436002323311832640229113167151808739e-01,1.000000000000000020816681711721685132943093776703e-02
2.000000000000000041633363423443370265886187553406e-01,7.515455159934559795000680315624208560620900243521e-01,-5.886789040431358575899446761159339303048909641802e-01,1.000000000000000020816681711721685132943093776703e-02
2.100000000000000043715031594615538779180496931076e-01,7.281377562806782171894899591269023630957235582173e-01,-6.143538016779662487175037166586832881876034662127e-01,1.000000000000000020816681711721685132943093776703e-02
2.200000000000000045796699765787707292474806308746e-01,7.039781309839439805585079024119465884723467752337e-01,-6.390064956301945139145910534939076796945300884545e-01,1.000000000000000020816681711721685132943093776703e-02
2.300000000000000047878367936959875805769115686417e-01,6.791070506017374180983761644547769265045644715428e-01,-6.626206775291117005710628262704631197266280651093e-01,1.000000000000000020816681711721685132943093776703e-02
2.400000000000000049960036108132044319063425064087e-01,6.535650308014352378245710728510431408722070045769e-01,-6.851817787369943723316603745310260364931309595704e-01,1.000000000000000020816681711721685132943093776703e-02
2.500000000000000052041704279304212832357734441757e-01,6.273926645436446347019535108024967939854832366109e-01,-7.066770029357087030247829007034710002699284814298e-01,1.000000000000000020816681711721685132943093776703e-02
2.600000000000000054123372450476381345652043819427e-01,6.006305825415009022735443600105043060466414317489e-01,-7.270953516571532220685337988275165344020933844149e-01,1.000000000000000020816681711721685132943093776703e-02
2.700000000000000056205040621648549858946353197098e-01,5.733194029776553391083114552539967689881450496614e-01,-7.464276406802232076659157911091568848860333673656e-01,1.000000000000000020816681711721685132943093776703e-02
2.800000000000000058286708792820718372240662574768e-01,5.454996717709080010050119724507311502748052589595e-01,-7.646665055778779921313512146774371558421989902854e-01,1.000000000000000020816681711721685132943093776703e-02
2.900000000000000060368376963992886885534971952438e-01,5.172117949923592841970747258084628583674202673137e-01,-7.818063951082799083701357911735385641804896295071e-01,1.000000000000000020816681711721685132943093776703e-02
3.000000000000000062450045135165055398829281330109e-01,4.884959652689821054489735518977511219418374821544e-01,-7.978435515855170015865442667557516642773407511413e-01,1.000000000000000020816681711721685132943093776703e-02
3.100000000000000064531713306337223912123590707779e-01,4.593920841751811627031668733289748729475832078606e-01,-8.127759778192834739119626563663700835604686290026e-01,1.000000000000000020816681711721685132943093776703e-02
3.200000000000000066613381477509392425417900085449e-01,4.299396826980723993296470281100241095373348798603e-01,-8.266033906607507405171764158779978970414958894253e-01,1.000000000000000020816681711721685132943093776703e-02
3.300000000000000068695049648681560938712209463120e-01,4.001778418710835764850360096733794534884509630501e-01,-8.393271616168557158971577636386030007997760549188e-01,1.000000000000000020816681711721685132943093776703e-02
3.400000000000000070776717819853729452006518840790e-01,3.701451156073612223506175827880682049908500630409e-01,-8.509502453827515714595598750324967340930015780032e-01,1.000000000000000020816681711721685132943093776703e-02
3.500000000000000072858385991025897965300828218460e-01,3.398794576363948674699484719941011690025334246457e-01,-8.614770974804425668434199048206778570602182298899e-01,1.000000000000000020816681711721685132943093776703e-02
3.600000000000000074940054162198066478595137596130e-01,3.094181542634182932713284713832635475228016730398e-01,-8.709135824720924630762929063987343170083477161825e-01,1.000000000000000020816681711721685132943093776703e-02
3.700000000000000077021722333370234991889446973801e-01,2.787977644422149827319740156283955911931116133928e-01,-8.792668744339104375099848420749282240649336017668e-01,1.000000000000000020816681711721685132943093776703e-02
3.800000000000000079103390504542403505183756351471e-01,2.480540683894722935650539730190189402492251247168e-01,-8.865453515288547432305135687080621664790669456124e-01,1.000000000000000020816681711721685132943093776703e-02
3.900000000000000081185058675714572018478065729141e-01,2.172220256845052731623467445754016580394818447530e-01,-8.927584866045605357237624488675464817788451910019e-01,1.000000000000000020816681711721685132943093776703e-02
4.000000000000000083266726846886740531772375106812e-01,1.863357435033021938363545499939277760859113186598e-01,-8.979167357703057035902063920396187768346862867475e-01,1.000000000000000020816681711721685132943093776703e-02
4.100000000000000085348395018058909045066684484482e-01,1.554284553408214854453755007779314212257304461673e-01,-9.020314268788725850598680944258944691682700067759e-01,1.000000000000000020816681711721685132943093776703e-02
4.200000000000000087430063189231077558360993862152e-01,1.245325102894131093651244532316546553829539334401e-01,-9.051146497626639536452156087342757473379606381059e-01,1.000000000000000020816681711721685132943093776703e-02
4.300000000000000089511731360403246071655303239822e-01,9.367937267175557909145008558815526100715942448005e-02,-9.071791499560785782766553220213268104998860508204e-01,1.000000000000000020816681711721685132943093776703e-02
4.400000000000000091593399531575414584949612617493e-01,6.289963157978020860715620554692861787771107628942e-02,-9.082382274859925686883756201783768347013392485678e-01,1.000000000000000020816681711721685132943093776703e-02
4.500000000000000093675067702747583098243921995163e-01,3.222301965106490079259783654297422117451787926257e-02,-9.083056421371890824085180982105924840652733109891e-01,1.000000000000000020816681711721685132943093776703e-02
4.600000000000000095756735873919751611538231372833e-01,1.678440223966255599209740356769771096878685057163e-03,-9.073955264072475654867598604536027551148436032236e-01,1.000000000000000020816681711721685132943093776703e-02
4.700000000000000097838404045091920124832540750504e-01,-2.870599814618879093335913378626234049306731321849e-02,-9.055223071625506093521203176965883585580741055310e-01,1.000000000000000020816681711721685132943093776703e-02
4.800000000000000099920072216264088638126850128174e-01,-5.890294095486245647420842606878377267776158987544e-02,-9.027006367996128116172084576707135283868410624564e-01,1.000000000000000020816681711721685132943093776703e-02
4.900000000000000102001740387436257151421159505844e-01,-8.888574204129557648930686636346010232045955490321e-02,-8.989453345088285238337517946138888191853766329587e-01,1.000000000000000020816681711721685132943093776703e-02
5.000000000000000104083408558608425664715468883514e-01,-1.186284142144217025285251113086992802436725469306e-01,-8.942713380349317686852927966612014643033035099506e-01,1.000000000000000020816681711721685132943093776703e-02
5.100000000000000106165076729780594178009778261185e-01,-1.481055775576053607834638159435058923918404616416e-01,-8.886936661329767669762792758891833955203765071929e-01,1.000000000000000020816681711721685132943093776703e-02
5.200000000000000108246744900952762691304087638855e-01,-1.772924067699665936202226002027515505687915720046e-01,-8.822273917326470743581305622438293312370660714805e-01,1.000000000000000020816681711721685132943093776703e-02
5.300000000000000110328413072124931204598397016525e-01,-2.061645788895029148208096203553907344030449166894e-01,-8.748876256486286275265013001600777897692751139402e-01,1.000000000000000020816681711721685132943093776703e-02
5.400000000000000112410081243297099717892706394196e-01,-2.346982227081179636966022650224061862900271080434e-01,-8.666895105115056484714267104330076563201146200299e-01,1.000000000000000020816681711721685132943093776703e-02
5.500000000000000114491749414469268231187015771866e-01,-2.628698711327280895994930320913596233367570675910e-01,-8.576482244426085581323615514293123851530253887177e-01,1.000000000000000020816681711721685132943093776703e-02
5.600000000000000116573417585641436744481325149536e-01,-2.906564176713718750382376559970865059767675120384e-01,-8.477789938576469653554699978936781690208590589464e-01,1.000000000000000020816681711721685132943093776703e-02
5.700000000000000118655085756813605257775634527206e-01,-3.180350781300372501442762229739713575327186845243e-01,-8.370971146578678781209961745624070772464619949460e-01,1.000000000000000020816681711721685132943093776703e-02
5.800000000000000120736753927985773771069943904877e-01,-3.449833584959456779896799089035752672316448297352e-01,-8.256179809539698564568172001187917885545175522566e-01,1.000000000000000020816681711721685132943093776703e-02
5.900000000000000122818422099157942284364253282547e-01,-3.714790298574173647914824225590990636192145757377e-01,-8.133571203672745515982252240139160903709125705063e-01,1.000000000000000020816681711721685132943093776703e-02
6.000000000000000124900090270330110797658562660217e-01,-3.975001110703281307365633545636285361979389563203e-01,-8.003302348650989650187363710909238534441101364791e-01,1.000000000000000020816681711721685132943093776703e-02
6.100000000000000126981758441502279310952872037888e-01,-4.230248597278254116846145371777510035826708190143e-01,-7.865532460135169224029090540017961075136554427445e-01,1.000000000000000020816681711721685132943093776703e-02
6.200000000000000129063426612674447824247181415558e-01,-4.480317718249031660310548880188363796150952111930e-01,-7.720423434716332843422148535239557531895115971565e-01,1.000000000000000020816681711721685132943093776703e-02
6.300000000000000131145094783846616337541490793228e-01,-4.724995903344922156561012244191388731451297644526e-01,-7.568140355082393598562529035689294687472283840179e-01,1.000000000000000020816681711721685132943093776703e-02
6.400000000000000133226762955018784850835800170898e-01,-4.964073227291864881267208220450015687674749642611e-01,-7.408852002955716192669592679020951209167833440006e-01,1.000000000000000020816681711721685132943093776703e-02
6.500000000000000135308431126190953364130109548569e-01,-5.197342672953767957200188476463154074735939502716e-01,-7.242731367272495013927974261136455425003077834845e-01,1.000000000000000020816681711721685132943093776703e-02
6.600000000000000137390099297363121877424418926239e-01,-5.424600478977073795172798853503337568326969631016e-01,-7.069956135196927727182975020880917327303905040026e-01,1.000000000000000020816681711721685132943093776703e-02
6.700000000000000139471767468535290390718728303909e-01,-5.645646566652213288678777147744369813153753057122e-01,-6.890709153896311534980706481334777890879195183516e-01,1.000000000000000020816681711721685132943093776703e-02
6.800000000000000141553435639707458904013037681580e-01,-5.860285038905801420039236304670993149557034485042e-01,-6.705178851556352042761338649867752792488317936659e-01,1.000000000000000020816681711721685132943093776703e-02
6.900000000000000143635103810879627417307347059250e-01,-6.068324742649238660169297432389612367842346429825e-01,-6.513559606893857621256332945947065127256792038679e-01,1.000000000000000020816681711721685132943093776703e-02
7.000000000000000145716771982051795930601656436920e-01,-6.269579884180474420112515188119317599557689391077e-01,-6.316052057425403153741345907423720973383751697838e-01,1.000000000000000020816681711721685132943093776703e-02
7.100000000000000147798440153223964443895965814590e-01,-6.463870686013431773658463597165280134504428133368e-01,-6.112863337967244373237322985215058679386856965721e-01,1.000000000000000020816681711721685132943093776703e-02
7.200000000000000149880108324396132957190275192261e-01,-6.651024072438762393152771046356264150745118968189e-01,-5.904207242257609520967587268813758782926015555859e-01,1.000000000000000020816681711721685132943093776703e-02
7.300000000000000151961776495568301470484584569931e-01,-6.830874370339922926616098297625256918763625435531e-01,-5.690304302183036325949588851713656367792282253504e-01,1.000000000000000020816681711721685132943093776703e-02
7.400000000000000154043444666740469983778893947601e-01,-7.003264011332287512973972243290887718103476800025e-01,-5.471381780822985158550808559851930112927220761776e-01,1.000000000000000020816681711721685132943093776703e-02
7.500000000000000156125112837912638497073203325272e-01,-7.168044221182697589502159918328771937012788839638e-01,-5.247673577361290891529072011323364677082281559706e-01,1.000000000000000020816681711721685132943093776703e-02
7.600000000000000158206781009084807010367512702942e-01,-7.325075682713567298050966192235478047223296016455e-01,-5.019420043802481766373295435368362404915387742221e-01,1.000000000000000020816681711721685132943093776703e-02
7.700000000000000160288449180256975523661822080612e-01,-7.474229158997747664034544401445714356668759137392e-01,-4.786867715324281564992763698951350193055986892432e-01,1.000000000000000020816681711721685132943093776703e-02
7.800000000000000162370117351429144036956131458282e-01,-7.615386064592868823144335144181837904397980310023e-01,-4.550268957940854109428530094305642705876380205154e-01,1.000000000000000020816681711721685132943093776703e-02
7.900000000000000164451785522601312550250440835953e-01,-7.748438973818844977513309313366107744514010846615e-01,-4.309881538890533125808150055613410245314298663288e-01,1.000000000000000020816681711721685132943093776703e-02
8.000000000000000166533453693773481063544750213623e-01,-7.873292056609621344313680590953907767470809631050e-01,-4.065968126745281762876842862608484097108885180205e-01,1.000000000000000020816681711721685132943093776703e-02
8.100000000000000168615121864945649576839059591293e-01,-7.989861434219740813321430916715826242580078542233e-01,-3.818795729620196540191577605494188674128963612020e-01,1.000000000000000020816681711721685132943093776703e-02
8.200000000000000170696790036117818090133368968964e-01,-8.098075448979624570773790115385537546899286098778e-01,-3.568635081000398286729235336478538442861463408917e-01,1.000000000000000020816681711721685132943093776703e-02
8.300000000000000172778458207289986603427678346634e-01,-8.197874844307137415797340218581723547686124220490e-01,-3.315759983569037220056327508466154085908783599734e-01,1.000000000000000020816681711721685132943093776703e-02
8.400000000000000174860126378462155116721987724304e-01,-8.289212853231449494215664353102823724839254282415e-01,-3.060446621993652899565690334027223684643104206771e-01,1.000000000000000020816681711721685132943093776703e-02
8.500000000000000176941794549634323630016297101974e-01,-8.372055195703745664832437500813000497146276757121e-01,-2.802972855899680279067980037677187965527991764247e-01,1.000000000000000020816681711721685132943093776703e-02
8.600000000000000179023462720806492143310606479645e-01,-8.446379986897126688452815124197314844423090107739e-01,-2.543617504231652754571532670802014308719662949443e-01,1.000000000000000020816681711721685132943093776703e-02
8.700000000000000181105130891978660656604915857315e-01,-8.512177560480602105780732757889239792348234914243e-01,-2.282659631887568637810754026973292241109447786584e-01,1.000000000000000020816681711721685132943093776703e-02
8.800000000000000183186799063150829169899225234985e-01,-8.569450212443289547205142742125616450721281580627e-01,-2.020377848932633639046380774617617248622991610318e-01,1.000000000000000020816681711721685132943093776703e-02
8.900000000000000185268467234322997683193534612656e-01,-8.618211872408530735997604643738867480351473204792e-01,-1.757049631886070120104659936233204575728450436145e-01,1.000000000000000020816681711721685132943093776703e-02
