time,u0,u1,tau
0.000000000000000000000000000000000000000000000000e+00,-1.249999999999999722444243843710864894092082977295e-02,6.250000000000000000000000000000000000000000000000e-02,1.000000000000000020816681711721685132943093776703e-02
1.000000000000000020816681711721685132943093776703e-02,-1.246472768970691147316642855003010481595993041992e-02,6.249714802183076872710287830159359145909547805786e-02,1.000000000000000020816681711721685132943093776703e-02
2.000000000000000041633363423443370265886187553406e-02,-1.242922572195381825110871432116255164146423339844e-02,6.249453816533583061509915523856761865317821502686e-02,1.000000000000000020816681711721685132943093776703e-02
2.999999999999999888977697537484345957636833190918e-02,-1.239349391391481210178415750533531536348164081573e-02,6.249217048157027637467209046917560044676065444946e-02,1.000000000000000020816681711721685132943093776703e-02
4.000000000000000083266726846886740531772375106812e-02,-1.235753208140097370026921907992800697684288024902e-02,6.249004502283416612185007465996022801846265792847e-02,1.000000000000000020816681711721685132943093776703e-02
5.000000000000000277555756156289135105907917022705e-02,-1.232134003885505119102461435431905556470155715942e-02,6.248816184267248774464320604238309897482395172119e-02,1.000000000000000020816681711721685132943093776703e-02
6.000000000000000471844785465691529680043458938599e-02,-1.228491759934617448546401163866903516463935375214e-02,6.248652099587507363631644352608418557792901992798e-02,1.000000000000000020816681711721685132943093776703e-02
7.000000000000000666133814775093924254179000854492e-02,-1.224826457456456782479925493589689722284674644470e-02,6.248512253847651742866275981214130297303199768066e-02,1.000000000000000020816681711721685132943093776703e-02
8.000000000000000166533453693773481063544750213623e-02,-1.221138077481629009846120226256971363909542560577e-02,6.248396652775602133633725543404580093920230865479e-02,1.000000000000000020816681711721685132943093776703e-02
8.999999999999999666933092612453037872910499572754e-02,-1.217426600901798383613794385382789187133312225342e-02,6.248305302223724350119127279867825563997030258179e-02,1.000000000000000020816681711721685132943093776703e-02
9.999999999999999167332731531132594682276248931885e-02,-1.213692008469164848594168404360971180722117424011e-02,6.248238208168806206987966334054362960159778594971e-02,1.000000000000000020816681711721685132943093776703e-02
1.099999999999999866773237044981215149164199829102e-01,-1.209934280795942063146952705210424028337001800537e-02,6.248195376712036008814976639769156463444232940674e-02,1.000000000000000020816681711721685132943093776703e-02
1.199999999999999816813200936849170830100774765015e-01,-1.206153398353836982137554656446809531189501285553e-02,6.248176814078971325061573338643938768655061721802e-02,1.000000000000000020816681711721685132943093776703e-02
1.299999999999999766853164828717126511037349700928e-01,-1.202349341473532041979499496164862648583948612213e-02,6.248182526619511234500237151223700493574142456055e-02,1.000000000000000020816681711721685132943093776703e-02
1.399999999999999855671006798729649744927883148193e-01,-1.198522090344167345676851255120709538459777832031e-02,6.248212520807858161298042887210613116621971130371e-02,1.000000000000000020816681711721685132943093776703e-02
1.499999999999999944488848768742172978818416595459e-01,-1.194671625012825449951847645024827215820550918579e-02,6.248266803242481098878968737153627444058656692505e-02,1.000000000000000020816681711721685132943093776703e-02
1.600000000000000033306690738754696212708950042725e-01,-1.190797925384017366678968130599969299510121345520e-02,6.248345380646072588781692047632532194256782531738e-02,1.000000000000000020816681711721685132943093776703e-02
1.700000000000000122124532708767219446599483489990e-01,-1.186900971219169952097782783084767288528382778168e-02,6.248448259865501536181042752104985993355512619019e-02,1.000000000000000020816681711721685132943093776703e-02
1.800000000000000210942374678779742680490016937256e-01,-1.182980742136114163387539122140879044309258460999e-02,6.248575447871766025409456801753549370914697647095e-02,1.000000000000000020816681711721685132943093776703e-02
1.900000000000000299760216648792265914380550384521e-01,-1.179037217608576264271658118332197773270308971405e-02,6.248726951759937808805744907658663578331470489502e-02,1.000000000000000020816681711721685132943093776703e-02
2.000000000000000388578058618804789148271083831787e-01,-1.175070376965668857149882597923351568169891834259e-02,6.248902778749105407785080501525953877717256546021e-02,1.000000000000000020816681711721685132943093776703e-02
2.100000000000000477395900588817312382161617279053e-01,-1.171080199391384343843292015208135126158595085144e-02,6.249102936182315132240816524245019536465406417847e-02,1.000000000000000020816681711721685132943093776703e-02
2.200000000000000566213742558829835616052150726318e-01,-1.167066663924089600645750408602907555177807807922e-02,6.249327431526504467163007916497008409351110458374e-02,1.000000000000000020816681711721685132943093776703e-02
2.300000000000000655031584528842358849942684173584e-01,-1.163029749456021520737092345143537386320531368256e-02,6.249576272372434765367543718639353755861520767212e-02,1.000000000000000020816681711721685132943093776703e-02
2.400000000000000743849426498854882083833217620850e-01,-1.158969434732784811736827634831570321694016456604e-02,6.249849466434617695220765654084971174597740173340e-02,1.000000000000000020816681711721685132943093776703e-02
2.500000000000000555111512312578270211815834045410e-01,-1.154885698352850140202541240341815864667296409607e-02,6.250147021551240300585305931235780008137226104736e-02,1.000000000000000020816681711721685132943093776703e-02
2.600000000000000643929354282590793445706367492676e-01,-1.150778518767055051685854749621285009197890758514e-02,6.250468945684087285208363482524873688817024230957e-02,1.000000000000000020816681711721685132943093776703e-02
2.700000000000000732747196252603316679596900939941e-01,-1.146647874278104370371345055445999605581164360046e-02,6.250815246918450807100953170447610318660736083984e-02,1.000000000000000020816681711721685132943093776703e-02
2.800000000000000821565038222615839913487434387207e-01,-1.142493743040073721217719793230571667663753032684e-02,6.251185933463050681258010854435269720852375030518e-02,1.000000000000000020816681711721685132943093776703e-02
2.900000000000000910382880192628363147377967834473e-01,-1.138316103057913225571340376518492121249437332153e-02,6.251581013649938622922519471103441901504993438721e-02,1.000000000000000020816681711721685132943093776703e-02
3.000000000000000999200722162640886381268501281738e-01,-1.134114932186952931503221009279513964429497718811e-02,6.252000495934401103070854333054739981889724731445e-02,1.000000000000000020816681711721685132943093776703e-02
3.100000000000001088018564132653409615159034729004e-01,-1.129890208132409458452460881972001516260206699371e-02,6.252444388894864979455689990572864189743995666504e-02,1.000000000000000020816681711721685132943093776703e-02
3.200000000000001176836406102665932849049568176270e-01,-1.125641908448894029648457149050955194979906082153e-02,6.252912701232787862082318497414235025644302368164e-02,1.000000000000000020816681711721685132943093776703e-02
3.300000000000001265654248072678456082940101623535e-01,-1.121370010539921718839551090241002384573221206665e-02,6.253405441772556805357652365273679606616497039795e-02,1.000000000000000020816681711721685132943093776703e-02
3.400000000000001354472090042690979316830635070801e-01,-1.117074491657421911328107455574354389682412147522e-02,6.253922619461371734672638922347687184810638427734e-02,1.000000000000000020816681711721685132943093776703e-02
3.500000000000001443289932012703502550721168518066e-01,-1.112755328901249805839679396513020037673413753510e-02,6.254464243369134424099797797680366784334182739258e-02,1.000000000000000020816681711721685132943093776703e-02
3.600000000000001532107773982716025784611701965332e-01,-1.108412499218699651115649373878113692626357078552e-02,6.255030322688324984081731372498325072228908538818e-02,1.000000000000000020816681711721685132943093776703e-02
3.700000000000001620925615952728549018502235412598e-01,-1.104045979404018676395260456502001034095883369446e-02,6.255620866733878349119635231545544229447841644287e-02,1.000000000000000020816681711721685132943093776703e-02
3.800000000000001709743457922741072252392768859863e-01,-1.099655746097922930093471194368248688988387584686e-02,6.256235884943060765461808614418259821832180023193e-02,1.000000000000000020816681711721685132943093776703e-02
3.900000000000001798561299892753595486283302307129e-01,-1.095241775787113465423505687112992745824158191681e-02,6.256875386875332401004357052443083375692367553711e-02,1.000000000000000020816681711721685132943093776703e-02
4.000000000000001887379141862766118720173835754395e-01,-1.090804044803794260742879629333401680923998355865e-02,6.257539382212212730749456568446476012468338012695e-02,1.000000000000000020816681711721685132943093776703e-02
4.100000000000001976196983832778641954064369201660e-01,-1.086342529325191180733511941980395931750535964966e-02,6.258227880757143146706056313632871024310588836670e-02,1.000000000000000020816681711721685132943093776703e-02
4.200000000000002065014825802791165187954902648926e-01,-1.081857205373072325360617185197042999789118766785e-02,6.258940892435338465560334952897392213344573974609e-02,1.000000000000000020816681711721685132943093776703e-02
4.300000000000002153832667772803688421845436096191e-01,-1.077348048813269072720988361879790318198502063751e-02,6.259678427293638436346157050138572230935096740723e-02,1.000000000000000020816681711721685132943093776703e-02
4.400000000000002242650509742816211655735969543457e-01,-1.072815035355198509670060502685373649001121520996e-02,6.260440495500355084779187109234044328331947326660e-02,1.000000000000000020816681711721685132943093776703e-02
4.500000000000002331468351712828734889626502990723e-01,-1.068258140551387076755407434802691568620502948761e-02,6.261227107345117282033442052124883048236370086670e-02,1.000000000000000020816681711721685132943093776703e-02
4.600000000000002420286193682841258123517036437988e-01,-1.063677339796995427456671734489646041765809059143e-02,6.262038273238706986845159008225891739130020141602e-02,1.000000000000000020816681711721685132943093776703e-02
4.700000000000002509104035652853781357407569885254e-01,-1.059072608329344154787232668013530201278626918793e-02,6.262874003712889936501539978053187951445579528809e-02,1.000000000000000020816681711721685132943093776703e-02
4.800000000000002597921877622866304591298103332520e-01,-1.054443921227440558729959718675672775134444236755e-02,6.263734309420250501165838841188815422356128692627e-02,1.000000000000000020816681711721685132943093776703e-02
4.900000000000002686739719592878827825188636779785e-01,-1.049791253411506627979399297601048601791262626648e-02,6.264619201134014048193421331234276294708251953125e-02,1.000000000000000020816681711721685132943093776703e-02
5.000000000000002220446049250313080847263336181641e-01,-1.045114579642508582935089833654274116270244121552e-02,6.265528689747865143111482666427036747336387634277e-02,1.000000000000000020816681711721685132943093776703e-02
5.100000000000002309263891220325604081153869628906e-01,-1.040413874521686245222529265674893395043909549713e-02,6.266462786275767138377545961702708154916763305664e-02,1.000000000000000020816681711721685132943093776703e-02
5.200000000000002398081733190338127315044403076172e-01,-1.035689112490085182771704097604015260003507137299e-02,6.267421501851772047686495170637499541044235229492e-02,1.000000000000000020816681711721685132943093776703e-02
5.300000000000002486899575160350650548934936523438e-01,-1.030940267828088161006228062888112617656588554382e-02,6.268404847729826256941265683053643442690372467041e-02,1.000000000000000020816681711721685132943093776703e-02
5.400000000000002575717417130363173782825469970703e-01,-1.026167314654948849172999558732044533826410770416e-02,6.269412835283576235223534922624821774661540985107e-02,1.000000000000000020816681711721685132943093776703e-02
5.500000000000002664535259100375697016716003417969e-01,-1.021370226928326220561249471074916073121130466461e-02,6.270445476006160367976605130024836398661136627197e-02,1.000000000000000020816681711721685132943093776703e-02
5.600000000000002753353101070388220250606536865234e-01,-1.016548978443819646610979390288775903172791004181e-02,6.271502781510009116860970834750332869589328765869e-02,1.000000000000000020816681711721685132943093776703e-02
5.700000000000002842170943040400743484497070312500e-01,-1.011703542834505552272528206003698869608342647552e-02,6.272584763526627138485736168149742297828197479248e-02,1.000000000000000020816681711721685132943093776703e-02
5.800000000000002930988785010413266718387603759766e-01,-1.006833893570474418310833897294287453405559062958e-02,6.273691433906380954255155302234925329685211181641e-02,1.000000000000000020816681711721685132943093776703e-02
5.900000000000003019806626980425789952278137207031e-01,-1.001940003958369518333171299673267640173435211182e-02,6.274822804618276905763707418373087421059608459473e-02,1.000000000000000020816681711721685132943093776703e-02
6.000000000000003108624468950438313186168670654297e-01,-9.970218471409258292892374697657942306250333786011e-03,6.275978887749733559076048550195991992950439453125e-02,1.000000000000000020816681711721685132943093776703e-02
6.100000000000003197442310920450836420059204101562e-01,-9.920793960965105032223654291101411217823624610901e-03,6.277159695506354109006963426509173586964607238770e-02,1.000000000000000020816681711721685132943093776703e-02
6.200000000000003286260152890463359653949737548828e-01,-9.871126236386643798548234940426482353359460830688e-03,6.278365240211689068949851844081422314047813415527e-02,1.000000000000000020816681711721685132943093776703e-02
6.300000000000003375077994860475882887840270996094e-01,-9.821215024156440195901573986247967695817351341248e-03,6.279595534306996185147653477542917244136333465576e-02,1.000000000000000020816681711721685132943093776703e-02
6.400000000000003463895836830488406121730804443359e-01,-9.771060049099646038772704059738316573202610015869e-03,6.280850590350996187627430344946333207190036773682e-02,1.000000000000000020816681711721685132943093776703e-02
6.500000000000003552713678800500929355621337890625e-01,-9.720661034379442233532842010390595532953739166260e-03,6.282130421019621602241045366099569946527481079102e-02,1.000000000000000020816681711721685132943093776703e-02
6.600000000000003641531520770513452589511871337891e-01,-9.670017701492490333481377717816940275952219963074e-03,6.283435039105761399369498576561454683542251586914e-02,1.000000000000000020816681711721685132943093776703e-02
6.700000000000003730349362740525975823402404785156e-01,-9.619129770264387563338814857161196414381265640259e-03,6.284764457519002867069701778746093623340129852295e-02,1.000000000000000020816681711721685132943093776703e-02
6.800000000000003819167204710538499057292938232422e-01,-9.567996958845139190974471432582504348829388618469e-03,6.286118689285365157548568504353170283138751983643e-02,1.000000000000000020816681711721685132943093776703e-02
6.900000000000003907985046680551022291183471679688e-01,-9.516618983704634368581132264353072969242930412292e-03,6.287497747547030058079542413906892761588096618652e-02,1.000000000000000020816681711721685132943093776703e-02
7.000000000000003996802888650563545525074005126953e-01,-9.464995559628130647467081359991425415500998497009e-03,6.288901645562065823025221789066563360393047332764e-02,1.000000000000000020816681711721685132943093776703e-02
7.100000000000004085620730620576068758964538574219e-01,-9.413126399711747166465514169431116897612810134888e-03,6.290330396704146842523641680600121617317199707031e-02,1.000000000000000020816681711721685132943093776703e-02
7.200000000000004174438572590588591992855072021484e-01,-9.361011215357975187578709608260396635159850120544e-03,6.291784014462270535616994493466336280107498168945e-02,1.000000000000000020816681711721685132943093776703e-02
7.300000000000004263256414560601115226745605468750e-01,-9.308649716271181692728298173733492149040102958679e-03,6.293262512440463141150104320331593044102191925049e-02,1.000000000000000020816681711721685132943093776703e-02
7.400000000000004352074256530613638460636138916016e-01,-9.256041610453135531910717759274120908230543136597e-03,6.294765904357486896447682056532357819378376007080e-02,1.000000000000000020816681711721685132943093776703e-02
7.500000000000004440892098500626161694526672363281e-01,-9.203186604198531836629193492171907564625144004822e-03,6.296294204046537501540115044917911291122436523438e-02,1.000000000000000020816681711721685132943093776703e-02
7.600000000000004529709940470638684928417205810547e-01,-9.150084402090535515283953316156839719042181968689e-03,6.297847425454937420052914376356056891381740570068e-02,1.000000000000000020816681711721685132943093776703e-02
7.700000000000004618527782440651208162307739257812e-01,-9.096734706996319544392015643552440451458096504211e-03,6.299425582643825016759819845901802182197570800781e-02,1.000000000000000020816681711721685132943093776703e-02
7.800000000000004707345624410663731396198272705078e-01,-9.043137220062624076488688729114073794335126876831e-03,6.301028689787838144020781783183338120579719543457e-02,1.000000000000000020816681711721685132943093776703e-02
7.900000000000004796163466380676254630088806152344e-01,-8.989291640711313813305594067060155794024467468262e-03,6.302656761174788013768477412668289616703987121582e-02,1.000000000000000020816681711721685132943093776703e-02
8.000000000000004884981308350688777863979339599609e-01,-8.935197666634952726183449556174309691414237022400e-03,6.304309811205337232831169558266992680728435516357e-02,1.000000000000000020816681711721685132943093776703e-02
8.100000000000004973799150320701301097869873046875e-01,-8.880854993792378776484852664907521102577447891235e-03,6.305987854392661184910195970587665215134620666504e-02,1.000000000000000020816681711721685132943093776703e-02
8.200000000000005062616992290713824331760406494141e-01,-8.826263316404289044347919457322859670966863632202e-03,6.307690905362109412557458654191577807068824768066e-02,1.000000000000000020816681711721685132943093776703e-02
8.300000000000005151434834260726347565650939941406e-01,-8.771422326948831796333827526268578367307782173157e-03,6.309418978850865611374132413402548991143703460693e-02,1.000000000000000020816681711721685132943093776703e-02
8.400000000000005240252676230738870799541473388672e-01,-8.716331716157212430862166741007968084886670112610e-03,6.311172089707592358642784802214009687304496765137e-02,1.000000000000000020816681711721685132943093776703e-02
8.500000000000005329070518200751394033432006835938e-01,-8.660991173009297688922814018042117822915315628052e-03,6.312950252892078617517057637087418697774410247803e-02,1.000000000000000020816681711721685132943093776703e-02
8.600000000000005417888360170763917267322540283203e-01,-8.605400384729232007852139929582335753366351127625e-03,6.314753483474876138981102258185273967683315277100e-02,1.000000000000000020816681711721685132943093776703e-02
8.700000000000005506706202140776440501213073730469e-01,-8.549559036781062548726595196058042347431182861328e-03,6.316581796636933088251453227712772786617279052734e-02,1.000000000000000020816681711721685132943093776703e-02
8.800000000000005595524044110788963735103607177734e-01,-8.493466812864369427926725109045946737751364707947e-03,6.318435207669222120063778902476769872009754180908e-02,1.000000000000000020816681711721685132943093776703e-02
8.900000000000005684341886080801486968994140625000e-01,-8.437123394909904622318563838234695140272378921509e-03,6.320313731972361515065728099216357804834842681885e-02,1.000000000000000020816681711721685132943093776703e-02
