time,u0,u1,tau
0.000000000000000000000000000000000000000000000000e+00,-1.249999999999999722444243843710864894092082977295e-02,-1.249999999999999722444243843710864894092082977295e-02,1.000000000000000020816681711721685132943093776703e-02
1.000000000000000020816681711721685132943093776703e-02,-1.250517971986330953426680423490324756130576133728e-02,-1.250486716313848646608963832704830565489828586578e-02,1.000000000000000020816681711721685132943093776703e-02
2.000000000000000041633363423443370265886187553406e-02,-1.251040847563123295516085420331364730373024940491e-02,-1.250978311889592436978446698958578053861856460571e-02,1.000000000000000020816681711721685132943093776703e-02
2.999999999999999888977697537484345957636833190918e-02,-1.251568632532723199246582623800350120291113853455e-02,-1.251474792159647936307109716835839208215475082397e-02,1.000000000000000020816681711721685132943093776703e-02
4.000000000000000083266726846886740531772375106812e-02,-1.252101332725887201935410786290958640165627002716e-02,-1.251976162583683972739923007111428887583315372467e-02,1.000000000000000020816681711721685132943093776703e-02
5.000000000000000277555756156289135105907917022705e-02,-1.252638954001833969387202927237012772820889949799e-02,-1.252482428648660564562966612811578670516610145569e-02,1.000000000000000020816681711721685132943093776703e-02
6.000000000000000471844785465691529680043458938599e-02,-1.253181502248295296764180051241055480204522609711e-02,-1.252993595868867951481639977373561123386025428772e-02,1.000000000000000020816681711721685132943093776703e-02
7.000000000000000666133814775093924254179000854492e-02,-1.253728983381566935983997268522216472774744033813e-02,-1.253509669785964585064785836721057421527802944183e-02,1.000000000000000020816681711721685132943093776703e-02
8.000000000000000166533453693773481063544750213623e-02,-1.254281403346559423117589915364078478887677192688e-02,-1.254030655969015292661161709020234411582350730896e-02,1.000000000000000020816681711721685132943093776703e-02
8.999999999999999666933092612453037872910499572754e-02,-1.254838768116847344535891295436158543452620506287e-02,-1.254556560014528400481825798351565026678144931793e-02,1.000000000000000020816681711721685132943093776703e-02
9.999999999999999167332731531132594682276248931885e-02,-1.255401083694719643890636007199645973742008209229e-02,-1.255087387546492683210175300700939260423183441162e-02,1.000000000000000020816681711721685132943093776703e-02
1.099999999999999866773237044981215149164199829102e-01,-1.255968356111228714788730087548174196854233741760e-02,-1.255623144216413966667289514589356258511543273926e-02,1.000000000000000020816681711721685132943093776703e-02
1.199999999999999816813200936849170830100774765015e-01,-1.256540591426238799577230764725754852406680583954e-02,-1.256163835703351036587882560979778645560145378113e-02,1.000000000000000020816681711721685132943093776703e-02
1.299999999999999766853164828717126511037349700928e-01,-1.257117795728474908545369004286840208806097507477e-02,-1.256709467713950680034518114780439645983278751373e-02,1.000000000000000020816681711721685132943093776703e-02
1.399999999999999855671006798729649744927883148193e-01,-1.257699975135570351347791273610710049979388713837e-02,-1.257260045982483247228866929390278528444468975067e-02,1.000000000000000020816681711721685132943093776703e-02
1.499999999999999944488848768742172978818416595459e-01,-1.258287135794114615372496501777277444489300251007e-02,-1.257815576270876999076531177479409961961209774017e-02,1.000000000000000020816681711721685132943093776703e-02
1.600000000000000033306690738754696212708950042725e-01,-1.258879283879700203274687453358637867495417594910e-02,-1.258376064368751760802478401046755607239902019501e-02,1.000000000000000020816681711721685132943093776703e-02
1.700000000000000122124532708767219446599483489990e-01,-1.259476425596969643982969699891327763907611370087e-02,-1.258941516093453269475865852200513472780585289001e-02,1.000000000000000020816681711721685132943093776703e-02
1.800000000000000210942374678779742680490016937256e-01,-1.260078567179661462871465005264326464384794235229e-02,-1.259511937290085266394346064089404535479843616486e-02,1.000000000000000020816681711721685132943093776703e-02
1.900000000000000299760216648792265914380550384521e-01,-1.260685714890656325404272308787767542526125907898e-02,-1.260087333831542630302458007918176008388400077820e-02,1.000000000000000020816681711721685132943093776703e-02
2.000000000000000388578058618804789148271083831787e-01,-1.261297875022022139945843122177393524907529354095e-02,-1.260667711618543643248280261559557402506470680237e-02,1.000000000000000020816681711721685132943093776703e-02
2.100000000000000477395900588817312382161617279053e-01,-1.261915053895059507516052121900429483503103256226e-02,-1.261253076579660868661303396720541059039533138275e-02,1.000000000000000020816681711721685132943093776703e-02
2.200000000000000566213742558829835616052150726318e-01,-1.262537257860346130711182155437199980951845645905e-02,-1.261843434671353070264387952192919328808784484863e-02,1.000000000000000020816681711721685132943093776703e-02
2.300000000000000655031584528842358849942684173584e-01,-1.263164493297780875680214052181327133439481258392e-02,-1.262438791877995049317551234935308457352221012115e-02,1.000000000000000020816681711721685132943093776703e-02
2.400000000000000743849426498854882083833217620850e-01,-1.263796766616627487156421238978509791195392608643e-02,-1.263039154211908175751144511878010234795510768890e-02,1.000000000000000020816681711721685132943093776703e-02
2.500000000000000555111512312578270211815834045410e-01,-1.264434084255557956544269160303883836604654788971e-02,-1.263644527713390051937292213324326439760625362396e-02,1.000000000000000020816681711721685132943093776703e-02
2.600000000000000643929354282590793445706367492676e-01,-1.265076452682695543061619503077963599935173988342e-02,-1.264254918450743135627245550267616636119782924652e-02,1.000000000000000020816681711721685132943093776703e-02
2.700000000000000732747196252603316679596900939941e-01,-1.265723878395657100992544030759745510295033454895e-02,-1.264870332520303536361083729389065410941839218140e-02,1.000000000000000020816681711721685132943093776703e-02
2.800000000000000821565038222615839913487434387207e-01,-1.266376367921594886523095624397683423012495040894e-02,-1.265490776046469464932719972694030730053782463074e-02,1.000000000000000020816681711721685132943093776703e-02
2.900000000000000910382880192628363147377967834473e-01,-1.267033927817238191104731725999954505823552608490e-02,-1.266116255181728468548474353383426205255091190338e-02,1.000000000000000020816681711721685132943093776703e-02
3.000000000000000999200722162640886381268501281738e-01,-1.267696564668934801345390184224015683867037296295e-02,-1.266746776106684145568603838682975037954747676849e-02,1.000000000000000020816681711721685132943093776703e-02
3.100000000000001088018564132653409615159034729004e-01,-1.268364285092691244594131916301193996332585811615e-02,-1.267382345030083207193527528033882845193147659302e-02,1.000000000000000020816681711721685132943093776703e-02
3.200000000000001176836406102665932849049568176270e-01,-1.269037095734213207998131167641986394301056861877e-02,-1.268022968188841324843618707518544397316873073578e-02,1.000000000000000020816681711721685132943093776703e-02
3.300000000000001265654248072678456082940101623535e-01,-1.269715003268945263670275380718521773815155029297e-02,-1.268668651848068457121954111244122032076120376587e-02,1.000000000000000020816681711721685132943093776703e-02
3.400000000000001354472090042690979316830635070801e-01,-1.270398014402110420384417466266313567757606506348e-02,-1.269319402301094176777063182726124068722128868103e-02,1.000000000000000020816681711721685132943093776703e-02
3.500000000000001443289932012703502550721168518066e-01,-1.271086135868748634436542488401755690574645996094e-02,-1.269975225869491609886896554826307692565023899078e-02,1.000000000000000020816681711721685132943093776703e-02
3.600000000000001532107773982716025784611701965332e-01,-1.271779374433755667450629545101037365384399890900e-02,-1.270636128903102068932184920413419604301452636719e-02,1.000000000000000020816681711721685132943093776703e-02
3.700000000000001620925615952728549018502235412598e-01,-1.272477736891920729878080464914091862738132476807e-02,-1.271302117780057604201626730855423375032842159271e-02,1.000000000000000020816681711721685132943093776703e-02
3.800000000000001709743457922741072252392768859863e-01,-1.273181230067964124497148503678545239381492137909e-02,-1.271973198906804596031161480595983448438346385956e-02,1.000000000000000020816681711721685132943093776703e-02
3.900000000000001798561299892753595486283302307129e-01,-1.273889860816574716440019443552955635823309421539e-02,-1.272649378718125612319767014923854731023311614990e-02,1.000000000000000020816681711721685132943093776703e-02
4.000000000000001887379141862766118720173835754395e-01,-1.274603636022445841968764312923667603172361850739e-02,-1.273330663677161439517604435422981623560190200806e-02,1.000000000000000020816681711721685132943093776703e-02
4.100000000000001976196983832778641954064369201660e-01,-1.275322562600312084613030094715213635936379432678e-02,-1.274017060275432419724772614699759287759661674500e-02,1.000000000000000020816681711721685132943093776703e-02
4.200000000000002065014825802791165187954902648926e-01,-1.276046647494984490056602055574330734089016914368e-02,-1.274708575032858746955977125026038265787065029144e-02,1.000000000000000020816681711721685132943093776703e-02
4.300000000000002153832667772803688421845436096191e-01,-1.276775897681386474913356465776814729906618595123e-02,-1.275405214497780936877546764662838540971279144287e-02,1.000000000000000020816681711721685132943093776703e-02
4.400000000000002242650509742816211655735969543457e-01,-1.277510320164588000779737342327280202880501747131e-02,-1.276106985246979429182712095780516392551362514496e-02,1.000000000000000020816681711721685132943093776703e-02
4.500000000000002331468351712828734889626502990723e-01,-1.278249921979839921759580789739629835821688175201e-02,-1.276813893885693843022188787017512368038296699524e-02,1.000000000000000020816681711721685132943093776703e-02
4.600000000000002420286193682841258123517036437988e-01,-1.278994710192608158516591743136814329773187637329e-02,-1.277525947047641018128327772274133167229592800140e-02,1.000000000000000020816681711721685132943093776703e-02
4.700000000000002509104035652853781357407569885254e-01,-1.279744691898606831492735125266335671767592430115e-02,-1.278243151395033402883960604867752408608794212341e-02,1.000000000000000020816681711721685132943093776703e-02
4.800000000000002597921877622866304591298103332520e-01,-1.280499874223831394126627003515750402584671974182e-02,-1.278965513618596401557159225603754748590290546417e-02,1.000000000000000020816681711721685132943093776703e-02
4.900000000000002686739719592878827825188636779785e-01,-1.281260264324590725237840160843916237354278564453e-02,-1.279693040437584854174257742442932794801890850067e-02,1.000000000000000020816681711721685132943093776703e-02
5.000000000000002220446049250313080847263336181641e-01,-1.282025869387539221411209666712238686159253120422e-02,-1.280425738599799863337569405530302901752293109894e-02,1.000000000000000020816681711721685132943093776703e-02
5.100000000000002309263891220325604081153869628906e-01,-1.282796696629708542436443252654498792253434658051e-02,-1.281163614881604059791975203097535995766520500183e-02,1.000000000000000020816681711721685132943093776703e-02
5.200000000000002398081733190338127315044403076172e-01,-1.283572753298537968968950906401005340740084648132e-02,-1.281906676087937214936207652726807282306253910065e-02,1.000000000000000020816681711721685132943093776703e-02
5.300000000000002486899575160350650548934936523438e-01,-1.284354046671905454080064856725584832020103931427e-02,-1.282654929052330292083006213488260982558131217957e-02,1.000000000000000020816681711721685132943093776703e-02
5.400000000000002575717417130363173782825469970703e-01,-1.285140584058157460500826374527605366893112659454e-02,-1.283408380636919844663967893438893952406942844391e-02,1.000000000000000020816681711721685132943093776703e-02
5.500000000000002664535259100375697016716003417969e-01,-1.285932372796138450921077378552581649273633956909e-02,-1.284167037732461373600312271037182654254138469696e-02,1.000000000000000020816681711721685132943093776703e-02
5.600000000000002753353101070388220250606536865234e-01,-1.286729420255220031343856845751361106522381305695e-02,-1.284930907258341990784256125834872364066541194916e-02,1.000000000000000020816681711721685132943093776703e-02
5.700000000000002842170943040400743484497070312500e-01,-1.287531733835329400550406830916472245007753372192e-02,-1.285699996162592909088040471488056937232613563538e-02,1.000000000000000020816681711721685132943093776703e-02
5.800000000000002930988785010413266718387603759766e-01,-1.288339320966977452620483290957054123282432556152e-02,-1.286474311421901065011219600364711368456482887268e-02,1.000000000000000020816681711721685132943093776703e-02
5.900000000000003019806626980425789952278137207031e-01,-1.289152189111286185563276518450948060490190982819e-02,-1.287253860041620220910907335110096028074622154236e-02,1.000000000000000020816681711721685132943093776703e-02
6.000000000000003108624468950438313186168670654297e-01,-1.289970345760015936475983977516079903580248355865e-02,-1.288038649055781373342632889489323133602738380432e-02,1.000000000000000020816681711721685132943093776703e-02
6.100000000000003197442310920450836420059204101562e-01,-1.290793798435591922812992748959004529751837253571e-02,-1.288828685527102640984153936187794897705316543579e-02,1.000000000000000020816681711721685132943093776703e-02
6.200000000000003286260152890463359653949737548828e-01,-1.291622554691130263238019182381322025321424007416e-02,-1.289623976546998805614574479250222793780267238617e-02,1.000000000000000020816681711721685132943093776703e-02
6.300000000000003375077994860475882887840270996094e-01,-1.292456622110463478059205755243965541012585163116e-02,-1.290424529235589812259377140435390174388885498047e-02,1.000000000000000020816681711721685132943093776703e-02
6.400000000000003463895836830488406121730804443359e-01,-1.293296008308165469247175138889360823668539524078e-02,-1.291230350741708922390760250209496007300913333893e-02,1.000000000000000020816681711721685132943093776703e-02
6.500000000000003552713678800500929355621337890625e-01,-1.294140720929576326980736666882876306772232055664e-02,-1.292041448242910346710932145697370287962257862091e-02,1.000000000000000020816681711721685132943093776703e-02
6.600000000000003641531520770513452589511871337891e-01,-1.294990767650825921886159619589307112619280815125e-02,-1.292857828945475837101319882549432804808020591736e-02,1.000000000000000020816681711721685132943093776703e-02
6.700000000000003730349362740525975823402404785156e-01,-1.295846156178857844221141704110777936875820159912e-02,-1.293679500084421452044125544489361345767974853516e-02,1.000000000000000020816681711721685132943093776703e-02
6.800000000000003819167204710538499057292938232422e-01,-1.296706894251451955279996752778970403596758842468e-02,-1.294506468923502587320406576054665492847561836243e-02,1.000000000000000020816681711721685132943093776703e-02
6.900000000000003907985046680551022291183471679688e-01,-1.297572989637247112271190019328059861436486244202e-02,-1.295338742755219353652851310698679299093782901764e-02,1.000000000000000020816681711721685132943093776703e-02
7.000000000000003996802888650563545525074005126953e-01,-1.298444450135763199305483084344814415089786052704e-02,-1.296176328900821260459164108169716200791299343109e-02,1.000000000000000020816681711721685132943093776703e-02
7.100000000000004085620730620576068758964538574219e-01,-1.299321283577422117549993174634437309578061103821e-02,-1.297019234710310511826669710444548400118947029114e-02,1.000000000000000020816681711721685132943093776703e-02
7.200000000000004174438572590588591992855072021484e-01,-1.300203497823568948854600080267118755728006362915e-02,-1.297867467562445475959265195342595688998699188232e-02,1.000000000000000020816681711721685132943093776703e-02
7.300000000000004263256414560601115226745605468750e-01,-1.301091100766492425488962680901749990880489349365e-02,-1.298721034864742940317938746375148184597492218018e-02,1.000000000000000020816681711721685132943093776703e-02
7.400000000000004352074256530613638460636138916016e-01,-1.301984100329444532517797483706090133637189865112e-02,-1.299579944053480540233636020275298506021499633789e-02,1.000000000000000020816681711721685132943093776703e-02
7.500000000000004440892098500626161694526672363281e-01,-1.302882504466659763231461965915514156222343444824e-02,-1.300444202593697279324302940040070097893476486206e-02,1.000000000000000020816681711721685132943093776703e-02
7.600000000000004529709940470638684928417205810547e-01,-1.303786321163374027631842722030341974459588527679e-02,-1.301313817979194917273666476376092759892344474792e-02,1.000000000000000020816681711721685132943093776703e-02
7.700000000000004618527782440651208162307739257812e-01,-1.304695558435842693556505622609620331786572933197e-02,-1.302188797732537102469496659296055440790951251984e-02,1.000000000000000020816681711721685132943093776703e-02
7.800000000000004707345624410663731396198272705078e-01,-1.305610224331358280858150777703485800884664058685e-02,-1.303069149405049545475954175799415679648518562317e-02,1.000000000000000020816681711721685132943093776703e-02
7.900000000000004796163466380676254630088806152344e-01,-1.306530326928267635167024707243399461731314659119e-02,-1.303954880576817937365419197703886311501264572144e-02,1.000000000000000020816681711721685132943093776703e-02
8.000000000000004884981308350688777863979339599609e-01,-1.307455874335988407763942120709543814882636070251e-02,-1.304845998856686214995015404838341055437922477722e-02,1.000000000000000020816681711721685132943093776703e-02
8.100000000000004973799150320701301097869873046875e-01,-1.308386874695025188508612501436800812371075153351e-02,-1.305742511882254305866091215193591779097914695740e-02,1.000000000000000020816681711721685132943093776703e-02
8.200000000000005062616992290713824331760406494141e-01,-1.309323336176984597933881104836473241448402404785e-02,-1.306644427319874311732572635946780792437493801117e-02,1.000000000000000020816681711721685132943093776703e-02
8.300000000000005151434834260726347565650939941406e-01,-1.310265266984590726284665151979424990713596343994e-02,-1.307551752864646518736968516805063700303435325623e-02,1.000000000000000020816681711721685132943093776703e-02
8.400000000000005240252676230738870799541473388672e-01,-1.311212675351699011305761644052836345508694648743e-02,-1.308464496240415060601680607987873372621834278107e-02,1.000000000000000020816681711721685132943093776703e-02
8.500000000000005329070518200751394033432006835938e-01,-1.312165569543310116029655176816959283314645290375e-02,-1.309382665199762367513880434444217826239764690399e-02,1.000000000000000020816681711721685132943093776703e-02
8.600000000000005417888360170763917267322540283203e-01,-1.313123957855583112674935364339035004377365112305e-02,-1.310306267524003094593343377027849783189594745636e-02,1.000000000000000020816681711721685132943093776703e-02
8.700000000000005506706202140776440501213073730469e-01,-1.314087848615848319600019067365792579948902130127e-02,-1.311235311023177703415587558311017346568405628204e-02,1.000000000000000020816681711721685132943093776703e-02
8.800000000000005595524044110788963735103607177734e-01,-1.315057250182619097422787035611690953373908996582e-02,-1.312169803536044655756231946952539146877825260162e-02,1.000000000000000020816681711721685132943093776703e-02
8.900000000000005684341886080801486968994140625000e-01,-1.316032170945603471667872952366451499983668327332e-02,-1.313109752930072607335354462065879488363862037659e-02,1.000000000000000020816681711721685132943093776703e-02
