time,u0,u1,tau
0.000000000000000000000000000000000000000000000000e+00,-2.499999999999999444888487687421729788184165954590e-02,-3.749999999999999167332731531132594682276248931885e-02,1.000000000000000020816681711721685132943093776703e-02
1.000000000000000020816681711721685132943093776703e-02,-2.501811788189846341712296862169750966131687164307e-02,-3.750803873622907125273684414423769339919090270996e-02,1.000000000000000020816681711721685132943093776703e-02
2.000000000000000041633363423443370265886187553406e-02,-2.503638257257609703310130555564683163538575172424e-02,-3.751622241669799739938184757193084806203842163086e-02,1.000000000000000020816681711721685132943093776703e-02
2.999999999999999888977697537484345957636833190918e-02,-2.505479423165993257960337814438389614224433898926e-02,-3.752455112781379054087693702967953868210315704346e-02,1.000000000000000020816681711721685132943093776703e-02
4.000000000000000083266726846886740531772375106812e-02,-2.507335301967206220297157415188848972320556640625e-02,-3.753302495667954624680717756746162194758653640747e-02,1.000000000000000020816681711721685132943093776703e-02
5.000000000000000277555756156289135105907917022705e-02,-2.509205909803177703132348597137024626135826110840e-02,-3.754164399109399113951823778734251391142606735229e-02,1.000000000000000020816681711721685132943093776703e-02
6.000000000000000471844785465691529680043458938599e-02,-2.511091262905769047608650623715220717713236808777e-02,-3.755040831955105268269434759531577583402395248413e-02,1.000000000000000020816681711721685132943093776703e-02
7.000000000000000666133814775093924254179000854492e-02,-2.512991377596987194187327929739694809541106224060e-02,-3.755931803123938039767892860254505649209022521973e-02,1.000000000000000020816681711721685132943093776703e-02
8.000000000000000166533453693773481063544750213623e-02,-2.514906270289193543354677728984825080260634422302e-02,-3.756837321604186014090132061937765683978796005249e-02,1.000000000000000020816681711721685132943093776703e-02
8.999999999999999666933092612453037872910499572754e-02,-2.516835957485315938830794380010047461837530136108e-02,-3.757757396453510062572789252044458407908678054810e-02,1.000000000000000020816681711721685132943093776703e-02
9.999999999999999167332731531132594682276248931885e-02,-2.518780455779055793552601016926928423345088958740e-02,-3.758692036798890606652534529530385043472051620483e-02,1.000000000000000020816681711721685132943093776703e-02
1.099999999999999866773237044981215149164199829102e-01,-2.520739781855096950380357156973332166671752929688e-02,-3.759641251836572106714839947017026133835315704346e-02,1.000000000000000020816681711721685132943093776703e-02
1.199999999999999816813200936849170830100774765015e-01,-2.522713952489312461135995135919074527919292449951e-02,-3.760605050832005469274577080796007066965103149414e-02,1.000000000000000020816681711721685132943093776703e-02
1.299999999999999766853164828717126511037349700928e-01,-2.524702984548969630917980566664482466876506805420e-02,-3.761583443119788372488443428665050305426120758057e-02,1.000000000000000020816681711721685132943093776703e-02
1.399999999999999855671006798729649744927883148193e-01,-2.526706894992934715471477602477534674108028411865e-02,-3.762576438103602816109827244872576557099819183350e-02,1.000000000000000020816681711721685132943093776703e-02
1.499999999999999944488848768742172978818416595459e-01,-2.528725700871877618558514200231002178043127059937e-02,-3.763584045256151977554281984339468181133270263672e-02,1.000000000000000020816681711721685132943093776703e-02
1.600000000000000033306690738754696212708950042725e-01,-2.530759419328473119881195430025400128215551376343e-02,-3.764606274119093598518048793266643770039081573486e-02,1.000000000000000020816681711721685132943093776703e-02
1.700000000000000122124532708767219446599483489990e-01,-2.532808067597603490783697566257615108042955398560e-02,-3.765643134302971983817798218296957202255725860596e-02,1.000000000000000020816681711721685132943093776703e-02
1.800000000000000210942374678779742680490016937256e-01,-2.534871663006557987452005420436762506142258644104e-02,-3.766694635487145143004639180617232341319322586060e-02,1.000000000000000020816681711721685132943093776703e-02
1.900000000000000299760216648792265914380550384521e-01,-2.536950222975233038003040064722881652414798736572e-02,-3.767760787419714707535689512951648794114589691162e-02,1.000000000000000020816681711721685132943093776703e-02
2.000000000000000388578058618804789148271083831787e-01,-2.539043765016330347905615383297117659822106361389e-02,-3.768841599917447521272961807881074491888284683228e-02,1.000000000000000020816681711721685132943093776703e-02
2.100000000000000477395900588817312382161617279053e-01,-2.541152306735554311512004233009065501391887664795e-02,-3.769937082865701394318591610499424859881401062012e-02,1.000000000000000020816681711721685132943093776703e-02
2.200000000000000566213742558829835616052150726318e-01,-2.543275865831808382755419017939857440069317817688e-02,-3.771047246218342530177380922395968809723854064941e-02,1.000000000000000020816681711721685132943093776703e-02
2.300000000000000655031584528842358849942684173584e-01,-2.545414460097390405013406677880993811413645744324e-02,-3.772172099997665034587512877806148026138544082642e-02,1.000000000000000020816681711721685132943093776703e-02
2.400000000000000743849426498854882083833217620850e-01,-2.547568107418186206247767700006079394370317459106e-02,-3.773311654294305567125533684702531900256872177124e-02,1.000000000000000020816681711721685132943093776703e-02
2.500000000000000555111512312578270211815834045410e-01,-2.549736825773863194144475130542559782043099403381e-02,-3.774465919267157298921944175162934698164463043213e-02,1.000000000000000020816681711721685132943093776703e-02
2.600000000000000643929354282590793445706367492676e-01,-2.551920633238062910419508000359201105311512947083e-02,-3.775634905143279013151058620678668376058340072632e-02,1.000000000000000020816681711721685132943093776703e-02
2.700000000000000732747196252603316679596900939941e-01,-2.554119547978591503456513578385056462138891220093e-02,-3.776818622217806287189034719631308689713478088379e-02,1.000000000000000020816681711721685132943093776703e-02
2.800000000000000821565038222615839913487434387207e-01,-2.556333588257609507055079234305594582110643386841e-02,-3.778017080853856429767390068263921421021223068237e-02,1.000000000000000020816681711721685132943093776703e-02
2.900000000000000910382880192628363147377967834473e-01,-2.558562772431821272234309105897409608587622642517e-02,-3.779230291482431336458347459483775310218334197998e-02,1.000000000000000020816681711721685132943093776703e-02
3.000000000000000999200722162640886381268501281738e-01,-2.560807118952662664312924789555836468935012817383e-02,-3.780458264602319651270789790942217223346233367920e-02,1.000000000000000020816681711721685132943093776703e-02
3.100000000000001088018564132653409615159034729004e-01,-2.563066646366488066099975640099728479981422424316e-02,-3.781701010779996846578043800946034025400876998901e-02,1.000000000000000020816681711721685132943093776703e-02
3.200000000000001176836406102665932849049568176270e-01,-2.565341373314755646362073093769140541553497314453e-02,-3.782958540649519751930540678586112335324287414551e-02,1.000000000000000020816681711721685132943093776703e-02
3.300000000000001265654248072678456082940101623535e-01,-2.567631318534212628290624991223012330010533332825e-02,-3.784230864912422470647257455311773810535669326782e-02,1.000000000000000020816681711721685132943093776703e-02
3.400000000000001354472090042690979316830635070801e-01,-2.569936500857078823245593923729757079854607582092e-02,-3.785517994337607439181425661445246078073978424072e-02,1.000000000000000020816681711721685132943093776703e-02
3.500000000000001443289932012703502550721168518066e-01,-2.572256939211228776720474797912174835801124572754e-02,-3.786819939761233710928678419804782606661319732666e-02,1.000000000000000020816681711721685132943093776703e-02
3.600000000000001532107773982716025784611701965332e-01,-2.574592652620373567362577205130946822464466094971e-02,-3.788136712086605240035197539327782578766345977783e-02,1.000000000000000020816681711721685132943093776703e-02
3.700000000000001620925615952728549018502235412598e-01,-2.576943660204241565159222204783873166888952255249e-02,-3.789468322284054307980127873634046409279108047485e-02,1.000000000000000020816681711721685132943093776703e-02
3.800000000000001709743457922741072252392768859863e-01,-2.579309981178757454900463130798016209155321121216e-02,-3.790814781390823562379210898143355734646320343018e-02,1.000000000000000020816681711721685132943093776703e-02
3.900000000000001798561299892753595486283302307129e-01,-2.581691634856220912697111202760424930602312088013e-02,-3.792176100510945974120247115024540107697248458862e-02,1.000000000000000020816681711721685132943093776703e-02
4.000000000000001887379141862766118720173835754395e-01,-2.584088640645482853885894769518927205353975296021e-02,-3.793552290815119937272825723084679339081048965454e-02,1.000000000000000020816681711721685132943093776703e-02
4.100000000000001976196983832778641954064369201660e-01,-2.586501018052123068713399334228597581386566162109e-02,-3.794943363540584368998054287658305838704109191895e-02,1.000000000000000020816681711721685132943093776703e-02
4.200000000000002065014825802791165187954902648926e-01,-2.588928786678624388573055625784036237746477127075e-02,-3.796349329990991033900726847605255898088216781616e-02,1.000000000000000020816681711721685132943093776703e-02
4.300000000000002153832667772803688421845436096191e-01,-2.591371966224546852242127670251647941768169403076e-02,-3.797770201536272705045149677971494384109973907471e-02,1.000000000000000020816681711721685132943093776703e-02
4.400000000000002242650509742816211655735969543457e-01,-2.593830576486700484339920080856245476752519607544e-02,-3.799205989612509937192186271204263903200626373291e-02,1.000000000000000020816681711721685132943093776703e-02
4.500000000000002331468351712828734889626502990723e-01,-2.596304637359317726841290152606234187260270118713e-02,-3.800656705721794370589350364753045141696929931641e-02,1.000000000000000020816681711721685132943093776703e-02
4.600000000000002420286193682841258123517036437988e-01,-2.598794168834223788921988784750283230096101760864e-02,-3.802122361432091340871508577947679441422224044800e-02,1.000000000000000020816681711721685132943093776703e-02
4.700000000000002509104035652853781357407569885254e-01,-2.601299191001006649859306207872577942907810211182e-02,-3.803602968377096937846459923093789257109165191650e-02,1.000000000000000020816681711721685132943093776703e-02
4.800000000000002597921877622866304591298103332520e-01,-2.603819724047185327209241734180977800861001014709e-02,-3.805098538256095064280515316568198613822460174561e-02,1.000000000000000020816681711721685132943093776703e-02
4.900000000000002686739719592878827825188636779785e-01,-2.606355788258377104149587921710917726159095764160e-02,-3.806609082833810331347734745577326975762844085693e-02,1.000000000000000020816681711721685132943093776703e-02
5.000000000000002220446049250313080847263336181641e-01,-2.608907404018465103767709933890728279948234558105e-02,-3.808134613940258872410993262747069820761680603027e-02,1.000000000000000020816681711721685132943093776703e-02
5.100000000000002309263891220325604081153869628906e-01,-2.611474591809762740846068140854185912758111953735e-02,-3.809675143470596381245485417821328155696392059326e-02,1.000000000000000020816681711721685132943093776703e-02
5.200000000000002398081733190338127315044403076172e-01,-2.614057372213178173647740720753063214942812919617e-02,-3.811230683384962680815277735746349208056926727295e-02,1.000000000000000020816681711721685132943093776703e-02
5.300000000000002486899575160350650548934936523438e-01,-2.616655765908377367923165479624003637582063674927e-02,-3.812801245708324904271080413309391587972640991211e-02,1.000000000000000020816681711721685132943093776703e-02
5.400000000000002575717417130363173782825469970703e-01,-2.619269793673946467027491280532558448612689971924e-02,-3.814386842530316512611676671440363861620426177979e-02,1.000000000000000020816681711721685132943093776703e-02
5.500000000000002664535259100375697016716003417969e-01,-2.621899476387552080369758300548710394650697708130e-02,-3.815987486005075618455961716790625359863042831421e-02,1.000000000000000020816681711721685132943093776703e-02
5.600000000000002753353101070388220250606536865234e-01,-2.624544835026101571862078287722397362813353538513e-02,-3.817603188351077758699858577529084868729114532471e-02,1.000000000000000020816681711721685132943093776703e-02
5.700000000000002842170943040400743484497070312500e-01,-2.627205890665902307534729231974779395386576652527e-02,-3.819233961850968667173233939138299319893121719360e-02,1.000000000000000020816681711721685132943093776703e-02
5.800000000000002930988785010413266718387603759766e-01,-2.629882664482818474538383668459573527798056602478e-02,-3.820879818851390802292300463705032598227262496948e-02,1.000000000000000020816681711721685132943093776703e-02
5.900000000000003019806626980425789952278137207031e-01,-2.632575177752427553201641785562969744205474853516e-02,-3.822540771762811956380190281379327643662691116333e-02,1.000000000000000020816681711721685132943093776703e-02
6.000000000000003108624468950438313186168670654297e-01,-2.635283451850176442143869337542128050699830055237e-02,-3.824216833059345538314843793159525375813245773315e-02,1.000000000000000020816681711721685132943093776703e-02
6.100000000000003197442310920450836420059204101562e-01,-2.638007508251535154775169189633743371814489364624e-02,-3.825908015278572243955679255122959148138761520386e-02,1.000000000000000020816681711721685132943093776703e-02
6.200000000000003286260152890463359653949737548828e-01,-2.640747368532150168851657667801191564649343490601e-02,-3.827614331021356869344529627596784848719835281372e-02,1.000000000000000020816681711721685132943093776703e-02
6.300000000000003375077994860475882887840270996094e-01,-2.643503054367996041307264931674581021070480346680e-02,-3.829335792951663042238408252160297706723213195801e-02,1.000000000000000020816681711721685132943093776703e-02
6.400000000000003463895836830488406121730804443359e-01,-2.646274587535527023085535347490804269909858703613e-02,-3.831072413796363790305932184310222510248422622681e-02,1.000000000000000020816681711721685132943093776703e-02
6.500000000000003552713678800500929355621337890625e-01,-2.649061989911826592303256688865076284855604171753e-02,-3.832824206345050027655574353957490529865026473999e-02,1.000000000000000020816681711721685132943093776703e-02
6.600000000000003641531520770513452589511871337891e-01,-2.651865283474755252690613360755378380417823791504e-02,-3.834591183449836959695744553755503147840499877930e-02,1.000000000000000020816681711721685132943093776703e-02
6.700000000000003730349362740525975823402404785156e-01,-2.654684490303099372865425209511158755049109458923e-02,-3.836373358025166324658528083091368898749351501465e-02,1.000000000000000020816681711721685132943093776703e-02
6.800000000000003819167204710538499057292938232422e-01,-2.657519632576716556160434379307844210416078567505e-02,-3.838170743047605165676472438462951686233282089233e-02,1.000000000000000020816681711721685132943093776703e-02
6.900000000000003907985046680551022291183471679688e-01,-2.660370732576681010450592168581351870670914649963e-02,-3.839983351555643215080593222410243470221757888794e-02,1.000000000000000020816681711721685132943093776703e-02
7.000000000000003996802888650563545525074005126953e-01,-2.663237812685428224090955495739763136953115463257e-02,-3.841811196649486809251428098832548130303621292114e-02,1.000000000000000020816681711721685132943093776703e-02
7.100000000000004085620730620576068758964538574219e-01,-2.666120895386896866297021801983646582812070846558e-02,-3.843654291490848640133748403968638740479946136475e-02,1.000000000000000020816681711721685132943093776703e-02
7.200000000000004174438572590588591992855072021484e-01,-2.669020003266671381414454344849218614399433135986e-02,-3.845512649302734731193709194485563784837722778320e-02,1.000000000000000020816681711721685132943093776703e-02
7.300000000000004263256414560601115226745605468750e-01,-2.671935159012121807631245928860153071582317352295e-02,-3.847386283369230025597218514121777843683958053589e-02,1.000000000000000020816681711721685132943093776703e-02
7.400000000000004352074256530613638460636138916016e-01,-2.674866385412543942634577831540809711441397666931e-02,-3.849275207035279811051964315993245691061019897461e-02,1.000000000000000020816681711721685132943093776703e-02
7.500000000000004440892098500626161694526672363281e-01,-2.677813705359297080654812361899530515074729919434e-02,-3.851179433706466287423708649839682038873434066772e-02,1.000000000000000020816681711721685132943093776703e-02
7.600000000000004529709940470638684928417205810547e-01,-2.680777141845941402564790223550517112016677856445e-02,-3.853098976848785134352581849270791281014680862427e-02,1.000000000000000020816681711721685132943093776703e-02
7.700000000000004618527782440651208162307739257812e-01,-2.683756717968373631255651901028613792732357978821e-02,-3.855033849988417221643643983952642884105443954468e-02,1.000000000000000020816681711721685132943093776703e-02
7.800000000000004707345624410663731396198272705078e-01,-2.686752456924961993123268655381252756342291831970e-02,-3.856984066711496850210494358179857954382896423340e-02,1.000000000000000020816681711721685132943093776703e-02
7.900000000000004796163466380676254630088806152344e-01,-2.689764382016679444831197542953304946422576904297e-02,-3.858949640663877217461319446556444745510816574097e-02,1.000000000000000020816681711721685132943093776703e-02
8.000000000000004884981308350688777863979339599609e-01,-2.692792516647236553128941238810512004420161247253e-02,-3.860930585550893107127379266785283107310533523560e-02,1.000000000000000020816681711721685132943093776703e-02
8.100000000000004973799150320701301097869873046875e-01,-2.695836884323211946057341492632986046373844146729e-02,-3.862926915137120109644541798843420110642910003662e-02,1.000000000000000020816681711721685132943093776703e-02
8.200000000000005062616992290713824331760406494141e-01,-2.698897508654182764153972584608709439635276794434e-02,-3.864938643246129679198475059820339083671569824219e-02,1.000000000000000020816681711721685132943093776703e-02
8.300000000000005151434834260726347565650939941406e-01,-2.701974413352853029990363609158521285280585289001e-02,-3.866965783760243496880448788033390883356332778931e-02,1.000000000000000020816681711721685132943093776703e-02
8.400000000000005240252676230738870799541473388672e-01,-2.705067622235182017709220758661103900521993637085e-02,-3.869008350620281588838622610637685284018516540527e-02,1.000000000000000020816681711721685132943093776703e-02
8.500000000000005329070518200751394033432006835938e-01,-2.708177159220509847004088044286618242040276527405e-02,-3.871066357825307668871772648344631306827068328857e-02,1.000000000000000020816681711721685132943093776703e-02
8.600000000000005417888360170763917267322540283203e-01,-2.711303048331682730154312821468920446932315826416e-02,-3.873139819432373093244237338694802019745111465454e-02,1.000000000000000020816681711721685132943093776703e-02
8.700000000000005506706202140776440501213073730469e-01,-2.714445313695177525170620924654940608888864517212e-02,-3.875228749556255264385740133548097219318151473999e-02,1.000000000000000020816681711721685132943093776703e-02
8.800000000000005595524044110788963735103607177734e-01,-2.717603979541223166438435043801291612908244132996e-02,-3.877333162369194646812431415128230582922697067261e-02,1.000000000000000020816681711721685132943093776703e-02
8.900000000000005684341886080801486968994140625000e-01,-2.720779070203923136195278686955134617164731025696e-02,-3.879453072100626925822197677007352467626333236694e-02,1.000000000000000020816681711721685132943093776703e-02
