time,u0,u1,tau
0.000000000000000000000000000000000000000000000000e+00,0.000000000000000000000000000000000000000000000000e+00,-1.249999999999999722444243843710864894092082977295e-02,1.000000000000000020816681711721685132943093776703e-02
1.000000000000000020816681711721685132943093776703e-02,-5.101562492436520431004012832154614898172440007329e-06,-1.250002343591044562387537553149741142988204956055e-02,1.000000000000000020816681711721685132943093776703e-02
2.000000000000000041633363423443370265886187553406e-02,-1.025000978643094986478712798971812958370719570667e-05,-1.250009575570380088160860054813383612781763076782e-02,1.000000000000000020816681711721685132943093776703e-02
2.999999999999999888977697537484345957636833190918e-02,-1.544536257359338727495126630806510092952521517873e-05,-1.250021697821791268057101120803054072894155979156e-02,1.000000000000000020816681711721685132943093776703e-02
4.000000000000000083266726846886740531772375106812e-02,-2.068764181138948277756048343967165692447451874614e-05,-1.250038712255528358663347887613781495019793510437e-02,1.000000000000000020816681711721685132943093776703e-02
5.000000000000000277555756156289135105907917022705e-02,-2.597686872354587164541013522001122737492551095784e-05,-1.250060620808342119747447185318378615193068981171e-02,1.000000000000000020816681711721685132943093776703e-02
6.000000000000000471844785465691529680043458938599e-02,-3.131306480045114107053222385346202827349770814180e-05,-1.250087425443519202616915464432167937047779560089e-02,1.000000000000000020816681711721685132943093776703e-02
7.000000000000000666133814775093924254179000854492e-02,-3.669625179955234153339818647943104679143289104104e-05,-1.250119128150915977226720343651322764344513416290e-02,1.000000000000000020816681711721685132943093776703e-02
8.000000000000000166533453693773481063544750213623e-02,-4.212645174574706141354396571330198639770969748497e-05,-1.250155730946993053176452548314045998267829418182e-02,1.000000000000000020816681711721685132943093776703e-02
8.999999999999999666933092612453037872910499572754e-02,-4.760368693177102587810178846439157496206462383270e-05,-1.250197235874848586401064665096782846376299858093e-02,1.000000000000000020816681711721685132943093776703e-02
9.999999999999999167332731531132594682276248931885e-02,-5.312797991858124376516117615132372975494945421815e-05,-1.250243645004251238916914701349014649167656898499e-02,1.000000000000000020816681711721685132943093776703e-02
1.099999999999999866773237044981215149164199829102e-01,-5.869935353573469907382739729762022307113511487842e-05,-1.250294960431672965095462046747343265451490879059e-02,1.000000000000000020816681711721685132943093776703e-02
1.199999999999999816813200936849170830100774765015e-01,-6.431783088176257689658199545590377965709194540977e-05,-1.250351184280321104047573044226737692952156066895e-02,1.000000000000000020816681711721685132943093776703e-02
1.299999999999999766853164828717126511037349700928e-01,-6.998343532454001701768181442631089339556638151407e-05,-1.250412318700169951590783767869652365334331989288e-02,1.000000000000000020816681711721685132943093776703e-02
1.399999999999999855671006798729649744927883148193e-01,-7.569619050165141550638725487232250088709406554699e-05,-1.250478365867992158744215203114436008036136627197e-02,1.000000000000000020816681711721685132943093776703e-02
1.499999999999999944488848768742172978818416595459e-01,-8.145612032075122009491113805879081155580934137106e-05,-1.250549327987389089389402840879483846947550773621e-02,1.000000000000000020816681711721685132943093776703e-02
1.600000000000000033306690738754696212708950042725e-01,-8.726324895992031420877826919380026993167120963335e-05,-1.250625207288821698348169064729518140666186809540e-02,1.000000000000000020816681711721685132943093776703e-02
1.700000000000000122124532708767219446599483489990e-01,-9.311760086801785412432413968630839917750563472509e-05,-1.250706006029639848209367158915483742021024227142e-02,1.000000000000000020816681711721685132943093776703e-02
1.800000000000000210942374678779742680490016937256e-01,-9.901920076502866089728643883560721405956428498030e-05,-1.250791726494111799627972914095153100788593292236e-02,1.000000000000000020816681711721685132943093776703e-02
1.900000000000000299760216648792265914380550384521e-01,-1.049680736424061535099622188837997782684396952391e-04,-1.250882370993453181207133440011602942831814289093e-02,1.000000000000000020816681711721685132943093776703e-02
2.000000000000000388578058618804789148271083831787e-01,-1.109642447634107148167134648808485053450567647815e-04,-1.250977941865855438963173185129562625661492347717e-02,1.000000000000000020816681711721685132943093776703e-02
2.100000000000000477395900588817312382161617279053e-01,-1.170077396634436800232012543254711545159807428718e-04,-1.251078441476513591901209565548924729228019714355e-02,1.000000000000000020816681711721685132943093776703e-02
2.200000000000000566213742558829835616052150726318e-01,-1.230985841503767037538596973433868697611615061760e-04,-1.251183872217653814118420996237546205520629882812e-02,1.000000000000000020816681711721685132943093776703e-02
2.300000000000000655031584528842358849942684173584e-01,-1.292368043048767089955169984349936385115142911673e-04,-1.251294236508560496490272129221921204589307308197e-02,1.000000000000000020816681711721685132943093776703e-02
2.400000000000000743849426498854882083833217620850e-01,-1.354224264807263094969463912420337692310567945242e-04,-1.251409536795602440995001103374306694604456424713e-02,1.000000000000000020816681711721685132943093776703e-02
2.500000000000000555111512312578270211815834045410e-01,-1.416554773051397462819284145396636631630826741457e-04,-1.251529775552259575455149587241976405493915081024e-02,1.000000000000000020816681711721685132943093776703e-02
2.600000000000000643929354282590793445706367492676e-01,-1.479359836790742298556072809034844794950913637877e-04,-1.251654955279148107027964442750089801847934722900e-02,1.000000000000000020816681711721685132943093776703e-02
2.700000000000000732747196252603316679596900939941e-01,-1.542639727775368507344672108771987950603943318129e-04,-1.251785078504045502223451791223851614631712436676e-02,1.000000000000000020816681711721685132943093776703e-02
2.800000000000000821565038222615839913487434387207e-01,-1.606394720498869092221300158840335825516376644373e-04,-1.251920147781915640394778677091380814090371131897e-02,1.000000000000000020816681711721685132943093776703e-02
2.900000000000000910382880192628363147377967834473e-01,-1.670625092201337457461368662947620578052010387182e-04,-1.252060165694932232505198754779485170729458332062e-02,1.000000000000000020816681711721685132943093776703e-02
3.000000000000000999200722162640886381268501281738e-01,-1.735331122872299904405513082394918455975130200386e-04,-1.252205134852503454201411159374401904642581939697e-02,1.000000000000000020816681711721685132943093776703e-02
3.100000000000001088018564132653409615159034729004e-01,-1.800513095253603403946007777136628646985627710819e-04,-1.252355057891294323746400607433315599337220191956e-02,1.000000000000000020816681711721685132943093776703e-02
3.200000000000001176836406102665932849049568176270e-01,-1.866171294842257019370307391525898310646880418062e-04,-1.252509937475249947314015486199423321522772312164e-02,1.000000000000000020816681711721685132943093776703e-02
3.300000000000001265654248072678456082940101623535e-01,-1.932306009893228334814430091626036301022395491600e-04,-1.252669776295617549977112759052033652551472187042e-02,1.000000000000000020816681711721685132943093776703e-02
3.400000000000001354472090042690979316830635070801e-01,-1.998917531422194076174553289959590074431616812944e-04,-1.252834577070968333223355273275956278666853904724e-02,1.000000000000000020816681711721685132943093776703e-02
3.500000000000001443289932012703502550721168518066e-01,-2.066006153208244924476821857695085782324895262718e-04,-1.253004342547218812053966274788763257674872875214e-02,1.000000000000000020816681711721685132943093776703e-02
3.600000000000001532107773982716025784611701965332e-01,-2.133572171796545063806455067023648553004022687674e-04,-1.253179075497651458193093532145212520845234394073e-02,1.000000000000000020816681711721685132943093776703e-02
3.700000000000001620925615952728549018502235412598e-01,-2.201615886500944837492893535468851951009128242731e-04,-1.253358778722935343297173460541671374812722206116e-02,1.000000000000000020816681711721685132943093776703e-02
3.800000000000001709743457922741072252392768859863e-01,-2.270137599406548409904788021762556127214338630438e-04,-1.253543455051145741330209659736283356323838233948e-02,1.000000000000000020816681711721685132943093776703e-02
3.900000000000001798561299892753595486283302307129e-01,-2.339137615372235620703200709158409154042601585388e-04,-1.253733107337783557466703854288425645790994167328e-02,1.000000000000000020816681711721685132943093776703e-02
4.000000000000001887379141862766118720173835754395e-01,-2.408616242033136405249760247926360534620471298695e-04,-1.253927738465794236577544040756038157269358634949e-02,1.000000000000000020816681711721685132943093776703e-02
4.100000000000001976196983832778641954064369201660e-01,-2.478573789803060491675201770789271904504857957363e-04,-1.254127351345585977826502244170114863663911819458e-02,1.000000000000000020816681711721685132943093776703e-02
4.200000000000002065014825802791165187954902648926e-01,-2.549010571876879935153403788916648409212939441204e-04,-1.254331948915048122739079872189904563128948211670e-02,1.000000000000000020816681711721685132943093776703e-02
4.300000000000002153832667772803688421845436096191e-01,-2.619926904232866386734723818108250270597636699677e-04,-1.254541534139567982020224690131726674735546112061e-02,1.000000000000000020816681711721685132943093776703e-02
4.400000000000002242650509742816211655735969543457e-01,-2.691323105634979844132115278654282519710250198841e-04,-1.254756110012048009316742991359205916523933410645e-02,1.000000000000000020816681711721685132943093776703e-02
4.500000000000002331468351712828734889626502990723e-01,-2.763199497635114034420344975018224431551061570644e-04,-1.254975679552922454562668974631378659978508949280e-02,1.000000000000000020816681711721685132943093776703e-02
4.600000000000002420286193682841258123517036437988e-01,-2.835556404575291381334189999563477613264694809914e-04,-1.255200245810172803018200937685833196155726909637e-02,1.000000000000000020816681711721685132943093776703e-02
4.700000000000002509104035652853781357407569885254e-01,-2.908394153589815688681907701607087801676243543625e-04,-1.255429811859343908198027861544687766581773757935e-02,1.000000000000000020816681711721685132943093776703e-02
4.800000000000002597921877622866304591298103332520e-01,-2.981713074607373324155512595012851306819356977940e-04,-1.255664380803558216603832420332764741033315658569e-02,1.000000000000000020816681711721685132943093776703e-02
4.900000000000002686739719592878827825188636779785e-01,-3.055513500353091577155240088359278161078691482544e-04,-1.255903955773530512873836784137893118895590305328e-02,1.000000000000000020816681711721685132943093776703e-02
5.000000000000002220446049250313080847263336181641e-01,-3.129795766350547143314075881903590925503522157669e-04,-1.256148539927582144515305628829082706943154335022e-02,1.000000000000000020816681711721685132943093776703e-02
5.100000000000002309263891220325604081153869628906e-01,-3.204560210923729614632127216111712186830118298531e-04,-1.256398136451654205802963559790441649965941905975e-02,1.000000000000000020816681711721685132943093776703e-02
5.200000000000002398081733190338127315044403076172e-01,-3.279807175198956722614318515240938722854480147362e-04,-1.256652748559320374732717340293675079010426998138e-02,1.000000000000000020816681711721685132943093776703e-02
5.300000000000002486899575160350650548934936523438e-01,-3.355537003106741334411411425975302336155436933041e-04,-1.256912379491799576503030522189874318428337574005e-02,1.000000000000000020816681711721685132943093776703e-02
5.400000000000002575717417130363173782825469970703e-01,-3.431750041383612912469780464874702374800108373165e-04,-1.257177032517967779634560088197758886963129043579e-02,1.000000000000000020816681711721685132943093776703e-02
5.500000000000002664535259100375697016716003417969e-01,-3.508446639573891269285599303628941925126127898693e-04,-1.257446710934369618617445496511209057644009590149e-02,1.000000000000000020816681711721685132943093776703e-02
5.600000000000002753353101070388220250606536865234e-01,-3.585627150031410448859092721107799661695025861263e-04,-1.257721418065229149196859737003251211717724800110e-02,1.000000000000000020816681711721685132943093776703e-02
5.700000000000002842170943040400743484497070312500e-01,-3.663291927921197613758630406977090387954376637936e-04,-1.258001157262460430186212789749333751387894153595e-02,1.000000000000000020816681711721685132943093776703e-02
5.800000000000002930988785010413266718387603759766e-01,-3.741441331221102600985972674862978237797506153584e-04,-1.258285931905677237918617095147055806592106819153e-02,1.000000000000000020816681711721685132943093776703e-02
5.900000000000003019806626980425789952278137207031e-01,-3.820075720723379772945926813321193549199961125851e-04,-1.258575745402202607226005426355186500586569309235e-02,1.000000000000000020816681711721685132943093776703e-02
6.000000000000003108624468950438313186168670654297e-01,-3.899195460036221621419327831858936406206339597702e-04,-1.258870601187077852001205968690555891953408718109e-02,1.000000000000000020816681711721685132943093776703e-02
6.100000000000003197442310920450836420059204101562e-01,-3.978800915585244666640429844761683852993883192539e-04,-1.259170502723070371453584215259979828260838985443e-02,1.000000000000000020816681711721685132943093776703e-02
6.200000000000003286260152890463359653949737548828e-01,-4.058892456614926025175449364468249768833629786968e-04,-1.259475453500682323726422850995732005685567855835e-02,1.000000000000000020816681711721685132943093776703e-02
6.300000000000003375077994860475882887840270996094e-01,-4.139470455189992815006605475502965418854728341103e-04,-1.259785457038157391318478062203212175518274307251e-02,1.000000000000000020816681711721685132943093776703e-02
6.400000000000003463895836830488406121730804443359e-01,-4.220535286196762229417311917956112665706314146519e-04,-1.260100516881487719977883443789323791861534118652e-02,1.000000000000000020816681711721685132943093776703e-02
6.500000000000003552713678800500929355621337890625e-01,-4.302087327344431737577434837760392838390544056892e-04,-1.260420636604420163706663515768013894557952880859e-02,1.000000000000000020816681711721685132943093776703e-02
6.600000000000003641531520770513452589511871337891e-01,-4.384126959166322664435133660276733280625194311142e-04,-1.260745819808462356292899642085103550925850868225e-02,1.000000000000000020816681711721685132943093776703e-02
6.700000000000003730349362740525975823402404785156e-01,-4.466654565021072813106595145171695548924617469311e-04,-1.261076070122887568536462765678152209147810935974e-02,1.000000000000000020816681711721685132943093776703e-02
6.800000000000003819167204710538499057292938232422e-01,-4.549670531093781382370178079099787282757461071014e-04,-1.261411391204739738947093741217031492851674556732e-02,1.000000000000000020816681711721685132943093776703e-02
6.900000000000003907985046680551022291183471679688e-01,-4.633175246397104010860623635181809731875546276569e-04,-1.261751786738837637080745679440951789729297161102e-02,1.000000000000000020816681711721685132943093776703e-02
7.000000000000003996802888650563545525074005126953e-01,-4.717169102772296863761158913774806933361105620861e-04,-1.262097260437778159514188303091941634193062782288e-02,1.000000000000000020816681711721685132943093776703e-02
7.100000000000004085620730620576068758964538574219e-01,-4.801652494890215183004356092055786575656384229660e-04,-1.262447816041939799291959900529036531224846839905e-02,1.000000000000000020816681711721685132943093776703e-02
7.200000000000004174438572590588591992855072021484e-01,-4.886625820252256001061108570127089478773996233940e-04,-1.262803457319485248011581290938920574262738227844e-02,1.000000000000000020816681711721685132943093776703e-02
7.300000000000004263256414560601115226745605468750e-01,-4.972089479191258570844880182448832783848047256470e-04,-1.263164188066363304019379398823730298317968845367e-02,1.000000000000000020816681711721685132943093776703e-02
7.400000000000004352074256530613638460636138916016e-01,-5.058043874872346790799726434784133743960410356522e-04,-1.263530012106310607133963230808149091899394989014e-02,1.000000000000000020816681711721685132943093776703e-02
7.500000000000004440892098500626161694526672363281e-01,-5.144489413293727719800330078214756213128566741943e-04,-1.263900933290852506007961864042954402975738048553e-02,1.000000000000000020816681711721685132943093776703e-02
7.600000000000004529709940470638684928417205810547e-01,-5.231426503287437508246671136191707773832604289055e-04,-1.264276955499303231600372043885727180168032646179e-02,1.000000000000000020816681711721685132943093776703e-02
7.700000000000004618527782440651208162307739257812e-01,-5.318855556520034203252245141868570499354973435402e-04,-1.264658082638766417593600976942980196326971054077e-02,1.000000000000000020816681711721685132943093776703e-02
7.800000000000004707345624410663731396198272705078e-01,-5.406776987493245017341036984248603403102606534958e-04,-1.265044318644133712614685549624482518993318080902e-02,1.000000000000000020816681711721685132943093776703e-02
7.900000000000004796163466380676254630088806152344e-01,-5.495191213544558302833697993605710507836192846298e-04,-1.265435667478084086345901937420421745628118515015e-02,1.000000000000000020816681711721685132943093776703e-02
8.000000000000004884981308350688777863979339599609e-01,-5.584098654847768905540306150214746594429016113281e-04,-1.265832133131082094801289628094309591688215732574e-02,1.000000000000000020816681711721685132943093776703e-02
8.100000000000004973799150320701301097869873046875e-01,-5.673499734413466055737984561346820555627346038818e-04,-1.266233719621375278241437456472340272739529609680e-02,1.000000000000000020816681711721685132943093776703e-02
8.200000000000005062616992290713824331760406494141e-01,-5.763394878089476806859448032582804444245994091034e-04,-1.266640430994991559088269639232748886570334434509e-02,1.000000000000000020816681711721685132943093776703e-02
8.300000000000005151434834260726347565650939941406e-01,-5.853784514561254179870752878400708141271024942398e-04,-1.267052271325735772478093821291622589342296123505e-02,1.000000000000000020816681711721685132943093776703e-02
8.400000000000005240252676230738870799541473388672e-01,-5.944669075352213265944767428550221666228026151657e-04,-1.267469244715185676397606329146583448164165019989e-02,1.000000000000000020816681711721685132943093776703e-02
8.500000000000005329070518200751394033432006835938e-01,-6.036048994824018540036880686727727152174338698387e-04,-1.267891355292687441402854631178342970088124275208e-02,1.000000000000000020816681711721685132943093776703e-02
8.600000000000005417888360170763917267322540283203e-01,-6.127924710176814795947741743020742433145642280579e-04,-1.268318607215350446448809407229418866336345672607e-02,1.000000000000000020816681711721685132943093776703e-02
8.700000000000005506706202140776440501213073730469e-01,-6.220296661449410376490409824157268303679302334785e-04,-1.268751004668042074718936618182851816527545452118e-02,1.000000000000000020816681711721685132943093776703e-02
8.800000000000005595524044110788963735103607177734e-01,-6.313165291519406193548880068533435405697673559189e-04,-1.269188551863380774731293598733827820979058742523e-02,1.000000000000000020816681711721685132943093776703e-02
8.900000000000005684341886080801486968994140625000e-01,-6.406531046103269453825812540515016735298559069633e-04,-1.269631253041729815334015540884138317778706550598e-02,1.000000000000000020816681711721685132943093776703e-02
