time,u0,u1,tau
0.000000000000000000000000000000000000000000000000e+00,0.000000000000000000000000000000000000000000000000e+00,5.000000000000001665334536937734810635447502136230e-02,1.000000000000000020816681711721685132943093776703e-02
1.000000000000000020816681711721685132943093776703e-02,2.509375039133320277502658957047287913155741989613e-05,5.000009360941358449448301826123497448861598968506e-02,1.000000000000000020816681711721685132943093776703e-02
2.000000000000000041633363423443370265886187553406e-02,5.037506872770029342067238387059546766977291554213e-05,5.000038224749674131697219081615912728011608123779e-02,1.000000000000000020816681711721685132943093776703e-02
2.999999999999999888977697537484345957636833190918e-02,7.584409488789074500585118965290121195721440017223e-05,5.000086597194034615521118780634424183517694473267e-02,1.000000000000000020816681711721685132943093776703e-02
4.000000000000000083266726846886740531772375106812e-02,1.015009698732886422693766359515166186611168086529e-04,5.000154484143636002269062146297073923051357269287e-02,1.000000000000000020816681711721685132943093776703e-02
5.000000000000000277555756156289135105907917022705e-02,1.273458358112850182224801143249237611598800867796e-04,5.000241891567788754535683892754605039954185485840e-02,1.000000000000000020816681711721685132943093776703e-02
6.000000000000000471844785465691529680043458938599e-02,1.533788359586760283604506271970535635773558169603e-04,5.000348825535919083939973006636137142777442932129e-02,1.000000000000000020816681711721685132943093776703e-02
7.000000000000000666133814775093924254179000854492e-02,1.796001147050468134055978275398501864401623606682e-04,5.000475292217570338904053528494841884821653366089e-02,1.000000000000000020816681711721685132943093776703e-02
8.000000000000000166533453693773481063544750213623e-02,2.060098175761413622896628394798312911007087677717e-04,5.000621297882398147427451817748078610748052597046e-02,1.000000000000000020816681711721685132943093776703e-02
8.999999999999999666933092612453037872910499572754e-02,2.326080912372183618231497037598387578327674418688e-04,5.000786848900167641529534989786043297499418258667e-02,1.000000000000000020816681711721685132943093776703e-02
9.999999999999999167332731531132594682276248931885e-02,2.593950834963930059465231359183690074132755398750e-04,5.000971951740742355019264664406364317983388900757e-02,1.000000000000000020816681711721685132943093776703e-02
1.099999999999999866773237044981215149164199829102e-01,2.863709433079650356138157185625914280535653233528e-04,5.001176612974077284601293058585724793374538421631e-02,1.000000000000000020816681711721685132943093776703e-02
1.199999999999999816813200936849170830100774765015e-01,3.135358207757325756277755335332813046989031136036e-04,5.001400839270201542641203218408918473869562149048e-02,1.000000000000000020816681711721685132943093776703e-02
1.299999999999999766853164828717126511037349700928e-01,3.408898671562927171034551587780470072175376117229e-04,5.001644637399206561045872376780607737600803375244e-02,1.000000000000000020816681711721685132943093776703e-02
1.399999999999999855671006798729649744927883148193e-01,3.684332348623278697782867929788608307717368006706e-04,5.001908014231224580692369841017352882772684097290e-02,1.000000000000000020816681711721685132943093776703e-02
1.499999999999999944488848768742172978818416595459e-01,3.961660774658788057404901206126623947056941688061e-04,5.002190976736409222525026052608154714107513427734e-02,1.000000000000000020816681711721685132943093776703e-02
1.600000000000000033306690738754696212708950042725e-01,4.240885497016037711595637382799850456649437546730e-04,5.002493531984910507537378521192295011132955551147e-02,1.000000000000000020816681711721685132943093776703e-02
1.700000000000000122124532708767219446599483489990e-01,4.522008074700244249603808821547090701642446219921e-04,5.002815687146849876754117758537176996469497680664e-02,1.000000000000000020816681711721685132943093776703e-02
1.800000000000000210942374678779742680490016937256e-01,4.805030078407578997094773409770596117596141993999e-04,5.003157449492290353987300477456301450729370117188e-02,1.000000000000000020816681711721685132943093776703e-02
1.900000000000000299760216648792265914380550384521e-01,5.089953090557355810247264216172879969235509634018e-04,5.003518826391203933035001227835891768336296081543e-02,1.000000000000000020816681711721685132943093776703e-02
2.000000000000000388578058618804789148271083831787e-01,5.376778705324087139286182157604798703687265515327e-04,5.003899825313437577101183251215843483805656433105e-02,1.000000000000000020816681711721685132943093776703e-02
2.100000000000000477395900588817312382161617279053e-01,5.665508528669401314137310521346080349758267402649e-04,5.004300453828675748768617381756484974175691604614e-02,1.000000000000000020816681711721685132943093776703e-02
2.200000000000000566213742558829835616052150726318e-01,5.956144178373832436326762440614857041509822010994e-04,5.004720719606401552193020165759662631899118423462e-02,1.000000000000000020816681711721685132943093776703e-02
2.300000000000000655031584528842358849942684173584e-01,6.248687284068476371912126410279597621411085128784e-04,5.005160630415851630292678464684286154806613922119e-02,1.000000000000000020816681711721685132943093776703e-02
2.400000000000000743849426498854882083833217620850e-01,6.543139487266513929647482328277874330524355173111e-04,5.005620194125973143606245230330387130379676818848e-02,1.000000000000000020816681711721685132943093776703e-02
2.500000000000000555111512312578270211815834045410e-01,6.839502441394602850685546790998614596901461482048e-04,5.006099418705372422477850591349124442785978317261e-02,1.000000000000000020816681711721685132943093776703e-02
2.600000000000000643929354282590793445706367492676e-01,7.137777811824140778221292613636705937096849083900e-04,5.006598312222265700910384111921302974224090576172e-02,1.000000000000000020816681711721685132943093776703e-02
2.700000000000000732747196252603316679596900939941e-01,7.437967275902397038672697604511085955891758203506e-04,5.007116882844425687082434706098865717649459838867e-02,1.000000000000000020816681711721685132943093776703e-02
2.800000000000000821565038222615839913487434387207e-01,7.740072522983514318600795078850751451682299375534e-04,5.007655138839122582750107426363683771342039108276e-02,1.000000000000000020816681711721685132943093776703e-02
2.900000000000000910382880192628363147377967834473e-01,8.044095254459381321571198597553120634984225034714e-04,5.008213088573065796538230642909184098243713378906e-02,1.000000000000000020816681711721685132943093776703e-02
3.000000000000000999200722162640886381268501281738e-01,8.350037183790376404957100930914748460054397583008e-04,5.008790740512340800005830487862112931907176971436e-02,1.000000000000000020816681711721685132943093776703e-02
3.100000000000001088018564132653409615159034729004e-01,8.657900036535986533492437189352131099440157413483e-04,5.009388103222343902043434127335785888135433197021e-02,1.000000000000000020816681711721685132943093776703e-02
3.200000000000001176836406102665932849049568176270e-01,8.967685550385291791755659751572693494381383061409e-04,5.010005185367714247712811470591987017542123794556e-02,1.000000000000000020816681711721685132943093776703e-02
3.300000000000001265654248072678456082940101623535e-01,9.279395475187327381808022330744734063046053051949e-04,5.010641995712261653750374534865841269493103027344e-02,1.000000000000000020816681711721685132943093776703e-02
3.400000000000001354472090042690979316830635070801e-01,9.593031572981318769177683236648590536788105964661e-04,5.011298543118892362402405638022173661738634109497e-02,1.000000000000000020816681711721685132943093776703e-02
3.500000000000001443289932012703502550721168518066e-01,9.908595618026787808785282862800158909521996974945e-04,5.011974836549532713592114419043355155736207962036e-02,1.000000000000000020816681711721685132943093776703e-02
3.600000000000001532107773982716025784611701965332e-01,1.022608939683353852442837528258223755983635783195e-03,5.012670885065047959860962123457284178584814071655e-02,1.000000000000000020816681711721685132943093776703e-02
3.700000000000001620925615952728549018502235412598e-01,1.054551470819150519458995418631275242660194635391e-03,5.013386697825160387420595498042530380189418792725e-02,1.000000000000000020816681711721685132943093776703e-02
3.800000000000001709743457922741072252392768859863e-01,1.086687336320049093382755778236514743184670805931e-03,5.014122284088362579979047950473614037036895751953e-02,1.000000000000000020816681711721685132943093776703e-02
3.900000000000001798561299892753595486283302307129e-01,1.119016718529977291729515798124339198693633079529e-03,5.014877653211827213119988755352096632122993469238e-02,1.000000000000000020816681711721685132943093776703e-02
4.000000000000001887379141862766118720173835754395e-01,1.151539801029758183781304126114264363422989845276e-03,5.015652814651316848681972260237671434879302978516e-02,1.000000000000000020816681711721685132943093776703e-02
4.100000000000001976196983832778641954064369201660e-01,1.184256768640046210069871612802216986892744898796e-03,5.016447777961087484133173575173714198172092437744e-02,1.000000000000000020816681711721685132943093776703e-02
4.200000000000002065014825802791165187954902648926e-01,1.217167807424250625114581225716392509639263153076e-03,5.017262552793790020277953090044320560991764068604e-02,1.000000000000000020816681711721685132943093776703e-02
4.300000000000002153832667772803688421845436096191e-01,1.250273104691447013936400622924338676966726779938e-03,5.018097148900368953405859429039992392063140869141e-02,1.000000000000000020816681711721685132943093776703e-02
4.400000000000002242650509742816211655735969543457e-01,1.283572848999275581305390403485944261774420738220e-03,5.018951576129959679661851623677648603916168212891e-02,1.000000000000000020816681711721685132943093776703e-02
4.500000000000002331468351712828734889626502990723e-01,1.317067230156828382126033005761200911365449428558e-03,5.019825844429778166633226987869420554488897323608e-02,1.000000000000000020816681711721685132943093776703e-02
4.600000000000002420286193682841258123517036437988e-01,1.350756439227523758236926276765643706312403082848e-03,5.020719963845012706604720165159960743039846420288e-02,1.000000000000000020816681711721685132943093776703e-02
4.700000000000002509104035652853781357407569885254e-01,1.384640668531968632146145203876130835851654410362e-03,5.021633944518707343140917487289698328822851181030e-02,1.000000000000000020816681711721685132943093776703e-02
4.800000000000002597921877622866304591298103332520e-01,1.418720111650808657702271808886962389806285500526e-03,5.022567796691648073226232895649445708841085433960e-02,1.000000000000000020816681711721685132943093776703e-02
4.900000000000002686739719592878827825188636779785e-01,1.452994963427566661381962198618111870018765330315e-03,5.023521530702239334953418392615276388823986053467e-02,1.000000000000000020816681711721685132943093776703e-02
5.000000000000002220446049250313080847263336181641e-01,1.487465419971468723672747280772910016821697354317e-03,5.024495156986382576880245665051916148513555526733e-02,1.000000000000000020816681711721685132943093776703e-02
5.100000000000002309263891220325604081153869628906e-01,1.522131678660258117391501642146067752037197351456e-03,5.025488686077348582381674191310594324022531509399e-02,1.000000000000000020816681711721685132943093776703e-02
5.200000000000002398081733190338127315044403076172e-01,1.556993938142997753459884080484698642976582050323e-03,5.026502128605648406223238566781219560652971267700e-02,1.000000000000000020816681711721685132943093776703e-02
5.300000000000002486899575160350650548934936523438e-01,1.592052398342859833094142807397020078497007489204e-03,5.027535495298899453908703094384691212326288223267e-02,1.000000000000000020816681711721685132943093776703e-02
5.400000000000002575717417130363173782825469970703e-01,1.627307260459904657973195796216714370530098676682e-03,5.028588796981689479359545202896697446703910827637e-02,1.000000000000000020816681711721685132943093776703e-02
5.500000000000002664535259100375697016716003417969e-01,1.662758726973847080501944795116742170648649334908e-03,5.029662044575435725368706130211648996919393539429e-02,1.000000000000000020816681711721685132943093776703e-02
5.600000000000002753353101070388220250606536865234e-01,1.698407001646810594169823005472608201671391725540e-03,5.030755249098242676275560825160937383770942687988e-02,1.000000000000000020816681711721685132943093776703e-02
5.700000000000002842170943040400743484497070312500e-01,1.734252289526070365047183408080400113249197602272e-03,5.031868421664755647304545504994166549295186996460e-02,1.000000000000000020816681711721685132943093776703e-02
5.800000000000002930988785010413266718387603759766e-01,1.770294796946784120217355251725166453979909420013e-03,5.033001573486010210567442868523357901722192764282e-02,1.000000000000000020816681711721685132943093776703e-02
5.900000000000003019806626980425789952278137207031e-01,1.806534731534711760506106692503180966014042496681e-03,5.034154715869279539397496137098642066121101379395e-02,1.000000000000000020816681711721685132943093776703e-02
6.000000000000003108624468950438313186168670654297e-01,1.842972302208921962785037607090998790226876735687e-03,5.035327860217916895457790360524086281657218933105e-02,1.000000000000000020816681711721685132943093776703e-02
6.100000000000003197442310920450836420059204101562e-01,1.879607719184488590774551042272833001334220170975e-03,5.036521018031197421960243332250684034079313278198e-02,1.000000000000000020816681711721685132943093776703e-02
6.200000000000003286260152890463359653949737548828e-01,1.916441193975174312261189335515609855065122246742e-03,5.037734200904152304101302206618129275739192962646e-02,1.000000000000000020816681711721685132943093776703e-02
6.300000000000003375077994860475882887840270996094e-01,1.953472939396103374293245380499683960806578397751e-03,5.038967420527403623387030506819428410381078720093e-02,1.000000000000000020816681711721685132943093776703e-02
6.400000000000003463895836830488406121730804443359e-01,1.990703169566422452152476552100779372267425060272e-03,5.040220688686991579174900834914296865463256835938e-02,1.000000000000000020816681711721685132943093776703e-02
6.500000000000003552713678800500929355621337890625e-01,2.028132099911949138421052296621382993180304765701e-03,5.041494017264203097994368363288231194019317626953e-02,1.000000000000000020816681711721685132943093776703e-02
6.600000000000003641531520770513452589511871337891e-01,2.065759947167810240548080358280458312947303056717e-03,5.042787418235392810084150028160365764051675796509e-02,1.000000000000000020816681711721685132943093776703e-02
6.700000000000003730349362740525975823402404785156e-01,2.103586929381067501670932173851724655833095312119e-03,5.044100903671801250371942160199978388845920562744e-02,1.000000000000000020816681711721685132943093776703e-02
6.800000000000003819167204710538499057292938232422e-01,2.141613265913331828893539920954935951158404350281e-03,5.045434485739372365564747724420158192515373229980e-02,1.000000000000000020816681711721685132943093776703e-02
6.900000000000003907985046680551022291183471679688e-01,2.179839177443367113223837705504593031946569681168e-03,5.046788176698562694566518871397420298308134078979e-02,1.000000000000000020816681711721685132943093776703e-02
7.000000000000003996802888650563545525074005126953e-01,2.218264885969680605404263928903674241155385971069e-03,5.048161988904151242785189879214158281683921813965e-02,1.000000000000000020816681711721685132943093776703e-02
7.100000000000004085620730620576068758964538574219e-01,2.256890614813103317082276788596573169343173503876e-03,5.049555934805042417545806188172718975692987442017e-02,1.000000000000000020816681711721685132943093776703e-02
7.200000000000004174438572590588591992855072021484e-01,2.295716588619359579959144923577696317806839942932e-03,5.050970026944068269614263044786639511585235595703e-02,1.000000000000000020816681711721685132943093776703e-02
7.300000000000004263256414560601115226745605468750e-01,2.334743033361622293470061251241531863342970609665e-03,5.052404277957785183605921019989182241261005401611e-02,1.000000000000000020816681711721685132943093776703e-02
7.400000000000004352074256530613638460636138916016e-01,2.373970176343059932527745914399019966367632150650e-03,5.053858700576266405057879183004843071103096008301e-02,1.000000000000000020816681711721685132943093776703e-02
7.500000000000004440892098500626161694526672363281e-01,2.413398246199370544839979402240714989602565765381e-03,5.055333307622891791943686712329508736729621887207e-02,1.000000000000000020816681711721685132943093776703e-02
7.600000000000004529709940470638684928417205810547e-01,2.453027472901304472524541822053834039252251386642e-03,5.056828112014134790630492943819263018667697906494e-02,1.000000000000000020816681711721685132943093776703e-02
7.700000000000004618527782440651208162307739257812e-01,2.492858087757176231702427315894965431652963161469e-03,5.058343126759342472942293511550815310329198837280e-02,1.000000000000000020816681711721685132943093776703e-02
7.800000000000004707345624410663731396198272705078e-01,2.532890323415363381664988651209569070488214492798e-03,5.059878364960516267112566879404766950756311416626e-02,1.000000000000000020816681711721685132943093776703e-02
7.900000000000004796163466380676254630088806152344e-01,2.573124413866797587785439915819551970344036817551e-03,5.061433839812084362064226183974824380129575729370e-02,1.000000000000000020816681711721685132943093776703e-02
8.000000000000004884981308350688777863979339599609e-01,2.613560594447440505599944415848767675925046205521e-03,5.063009564600672723910790296031336765736341476440e-02,1.000000000000000020816681711721685132943093776703e-02
8.100000000000004973799150320701301097869873046875e-01,2.654199101840750123909584701209496415685862302780e-03,5.064605552704871949121212537647807039320468902588e-02,1.000000000000000020816681711721685132943093776703e-02
8.200000000000005062616992290713824331760406494141e-01,2.695040174080135832179738741842811577953398227692e-03,5.066221817595000648237757445713214110583066940308e-02,1.000000000000000020816681711721685132943093776703e-02
8.300000000000005151434834260726347565650939941406e-01,2.736084050551402645917731248914606112521141767502e-03,5.067858372832862584589364018938795197755098342896e-02,1.000000000000000020816681711721685132943093776703e-02
8.400000000000005240252676230738870799541473388672e-01,2.777330971995182421624415169958410842809826135635e-03,5.069515232071503813005008964864828158169984817505e-02,1.000000000000000020816681711721685132943093776703e-02
8.500000000000005329070518200751394033432006835938e-01,2.818781180509355530766635311579193512443453073502e-03,5.071192409054960797964994867470522876828908920288e-02,1.000000000000000020816681711721685132943093776703e-02
8.600000000000005417888360170763917267322540283203e-01,2.860434919551460824366229118709270551335066556931e-03,5.072889917618009225641628745506750419735908508301e-02,1.000000000000000020816681711721685132943093776703e-02
8.700000000000005506706202140776440501213073730469e-01,2.902292433941093888205564610416331561282277107239e-03,5.074607771685907264824777485046070069074630737305e-02,1.000000000000000020816681711721685132943093776703e-02
8.800000000000005595524044110788963735103607177734e-01,2.944353969862294456011353460667123727034777402878e-03,5.076345985274131888953519364804378710687160491943e-02,1.000000000000000020816681711721685132943093776703e-02
8.900000000000005684341886080801486968994140625000e-01,2.986619774865922113255001235643248946871608495712e-03,5.078104572488115892037185972185397986322641372681e-02,1.000000000000000020816681711721685132943093776703e-02
