time,u0,u1,tau
0.000000000000000000000000000000000000000000000000e+00,2.500000000000002220446049250313080847263336181641e-02,7.500000000000001110223024625156540423631668090820e-02,1.000000000000000020816681711721685132943093776703e-02
1.000000000000000020816681711721685132943093776703e-02,2.504889434296117545208915089460788294672966003418e-02,7.500388966351903552443047829001443460583686828613e-02,1.000000000000000020816681711721685132943093776703e-02
2.000000000000000041633363423443370265886187553406e-02,2.509808160670287668914113510254537686705589294434e-02,7.500806488143214878494546837828238494694232940674e-02,1.000000000000000020816681711721685132943093776703e-02
2.999999999999999888977697537484345957636833190918e-02,2.514756219431552031196019925118889659643173217773e-02,7.501252565333552113635562363924691453576087951660e-02,1.000000000000000020816681711721685132943093776703e-02
4.000000000000000083266726846886740531772375106812e-02,2.519733651082339473403770568893378367647528648376e-02,7.501727197974712713079981085684266872704029083252e-02,1.000000000000000020816681711721685132943093776703e-02
5.000000000000000277555756156289135105907917022705e-02,2.524740496319338028952117269909649621695280075073e-02,7.502230386209965407040556328865932300686836242676e-02,1.000000000000000020816681711721685132943093776703e-02
6.000000000000000471844785465691529680043458938599e-02,2.529776796034364019782891830345761263743042945862e-02,7.502762130273332719099244059179909527301788330078e-02,1.000000000000000020816681711721685132943093776703e-02
7.000000000000000666133814775093924254179000854492e-02,2.534842591315227683379518452966294717043638229370e-02,7.503322430488863770126073404753697104752063751221e-02,1.000000000000000020816681711721685132943093776703e-02
8.000000000000000166533453693773481063544750213623e-02,2.539937923446597412002745386416791006922721862793e-02,7.503911287269904306640455615706741809844970703125e-02,1.000000000000000020816681711721685132943093776703e-02
8.999999999999999666933092612453037872910499572754e-02,2.545062833910862257202900593711092369630932807922e-02,7.504528701118351463605904427822679281234741210938e-02,1.000000000000000020816681711721685132943093776703e-02
9.999999999999999167332731531132594682276248931885e-02,2.550217364388992352663976248550170566886663436890e-02,7.505174672623904363888414081884548068046569824219e-02,1.000000000000000020816681711721685132943093776703e-02
1.099999999999999866773237044981215149164199829102e-01,2.555401556761397255379542059472441906109452247620e-02,7.505849202463306391042152654335950501263141632080e-02,1.000000000000000020816681711721685132943093776703e-02
1.199999999999999816813200936849170830100774765015e-01,2.560615453108781858215792226474150083959102630615e-02,7.506552291399577747643689917822484858334064483643e-02,1.000000000000000020816681711721685132943093776703e-02
1.299999999999999766853164828717126511037349700928e-01,2.565859095713001608585202006906911265105009078979e-02,7.507283940281243850289882857396150939166545867920e-02,1.000000000000000020816681711721685132943093776703e-02
1.399999999999999855671006798729649744927883148193e-01,2.571132527057914604617927523122489219531416893005e-02,7.508044150041547071250391809371649287641048431396e-02,1.000000000000000020816681711721685132943093776703e-02
1.499999999999999944488848768742172978818416595459e-01,2.576435789830232997443815179394732695072889328003e-02,7.508832921697659867898977381628355942666530609131e-02,1.000000000000000020816681711721685132943093776703e-02
1.600000000000000033306690738754696212708950042725e-01,2.581768926920370924027459125227323966100811958313e-02,7.509650256349881258799427996564190834760665893555e-02,1.000000000000000020816681711721685132943093776703e-02
1.700000000000000122124532708767219446599483489990e-01,2.587131981423291746113868327938689617440104484558e-02,7.510496155180829136455145089712459594011306762695e-02,1.000000000000000020816681711721685132943093776703e-02
1.800000000000000210942374678779742680490016937256e-01,2.592524996639353554450657668439816916361451148987e-02,7.511370619454624253386043619684642180800437927246e-02,1.000000000000000020816681711721685132943093776703e-02
1.900000000000000299760216648792265914380550384521e-01,2.597948016075151897452677474120719125494360923767e-02,7.512273650516063105975206326547777280211448669434e-02,1.000000000000000020816681711721685132943093776703e-02
2.000000000000000388578058618804789148271083831787e-01,2.603401083444361469032557465652644168585538864136e-02,7.513205249789781103864072520082117989659309387207e-02,1.000000000000000020816681711721685132943093776703e-02
2.100000000000000477395900588817312382161617279053e-01,2.608884242668575020873689140898932237178087234497e-02,7.514165418779414351568846086593111976981163024902e-02,1.000000000000000020816681711721685132943093776703e-02
2.200000000000000566213742558829835616052150726318e-01,2.614397537878141927758512963464454514905810356140e-02,7.515154159066740613415191774038248695433139801025e-02,1.000000000000000020816681711721685132943093776703e-02
2.300000000000000655031584528842358849942684173584e-01,2.619941013413003630394548792992281960323452949524e-02,7.516171472310823054030493040045257657766342163086e-02,1.000000000000000020816681711721685132943093776703e-02
2.400000000000000743849426498854882083833217620850e-01,2.625514713823527343516950338653259677812457084656e-02,7.517217360247134549933178959690849296748638153076e-02,1.000000000000000020816681711721685132943093776703e-02
2.500000000000000555111512312578270211815834045410e-01,2.631118683871338376212278831189905758947134017944e-02,7.518291824686684776679612696170806884765625000000e-02,1.000000000000000020816681711721685132943093776703e-02
2.600000000000000643929354282590793445706367492676e-01,2.636752968530151411408191108876053476706147193909e-02,7.519394867515125091550487468339269980788230895996e-02,1.000000000000000020816681711721685132943093776703e-02
2.700000000000000732747196252603316679596900939941e-01,2.642417612986598315916175749862304655835032463074e-02,7.520526490691853416237222518248017877340316772461e-02,1.000000000000000020816681711721685132943093776703e-02
2.800000000000000821565038222615839913487434387207e-01,2.648112662641054909640203618437226396054029464722e-02,7.521686696249108017298112827120348811149597167969e-02,1.000000000000000020816681711721685132943093776703e-02
2.900000000000000910382880192628363147377967834473e-01,2.653838163108466693951292825204291148111224174500e-02,7.522875486291048796605451798313879407942295074463e-02,1.000000000000000020816681711721685132943093776703e-02
3.000000000000000999200722162640886381268501281738e-01,2.659594160219171804504512124367465730756521224976e-02,7.524092862992831642898750033054966479539871215820e-02,1.000000000000000020816681711721685132943093776703e-02
3.100000000000001088018564132653409615159034729004e-01,2.665380700019722576277203529571124818176031112671e-02,7.525338828599673068886488636053400114178657531738e-02,1.000000000000000020816681711721685132943093776703e-02
3.200000000000001176836406102665932849049568176270e-01,2.671197828773705373883728952932870015501976013184e-02,7.526613385425905133896407050997368060052394866943e-02,1.000000000000000020816681711721685132943093776703e-02
3.300000000000001265654248072678456082940101623535e-01,2.677045592962559034111436062630673404783010482788e-02,7.527916535854020652074325425928691402077674865723e-02,1.000000000000000020816681711721685132943093776703e-02
3.400000000000001354472090042690979316830635070801e-01,2.682924039286390879843757772960088914260268211365e-02,7.529248282333710073910282289944007061421871185303e-02,1.000000000000000020816681711721685132943093776703e-02
3.500000000000001443289932012703502550721168518066e-01,2.688833214664790999259835757584369275718927383423e-02,7.530608627380883102198083633993519470095634460449e-02,1.000000000000000020816681711721685132943093776703e-02
3.600000000000001532107773982716025784611701965332e-01,2.694773166237645484200058376700326334685087203979e-02,7.531997573576690307994851991679752245545387268066e-02,1.000000000000000020816681711721685132943093776703e-02
3.700000000000001620925615952728549018502235412598e-01,2.700743941365947933808122627397096948698163032532e-02,7.533415123566523929898863798371166922152042388916e-02,1.000000000000000020816681711721685132943093776703e-02
3.800000000000001709743457922741072252392768859863e-01,2.706745587632608182615534531123557826504111289978e-02,7.534861280059015897769825187424430623650550842285e-02,1.000000000000000020816681711721685132943093776703e-02
3.900000000000001798561299892753595486283302307129e-01,2.712778152843260334736719130432902602478861808777e-02,7.536336045825024754218901534841279499232769012451e-02,1.000000000000000020816681711721685132943093776703e-02
4.000000000000001887379141862766118720173835754395e-01,2.718841685027069063340654508920124499127268791199e-02,7.537839423696610086089719970914302393794059753418e-02,1.000000000000000020816681711721685132943093776703e-02
4.100000000000001976196983832778641954064369201660e-01,2.724936232437533481509639443629566812887787818909e-02,7.539371416565997241487906421752995811402797698975e-02,1.000000000000000020816681711721685132943093776703e-02
4.200000000000002065014825802791165187954902648926e-01,2.731061843553289625319280276016797870397567749023e-02,7.540932027384535107916718743581441231071949005127e-02,1.000000000000000020816681711721685132943093776703e-02
4.300000000000002153832667772803688421845436096191e-01,2.737218567078912243029087392187648219987750053406e-02,7.542521259161638624846091261133551597595214843750e-02,1.000000000000000020816681711721685132943093776703e-02
4.400000000000002242650509742816211655735969543457e-01,2.743406451945713114826119749523058999329805374146e-02,7.544139114963724357387775398819940164685249328613e-02,1.000000000000000020816681711721685132943093776703e-02
4.500000000000002331468351712828734889626502990723e-01,2.749625547312538678679239012581092538312077522278e-02,7.545785597913133579961453278883709572255611419678e-02,1.000000000000000020816681711721685132943093776703e-02
4.600000000000002420286193682841258123517036437988e-01,2.755875902566566962303973298276105197146534919739e-02,7.547460711187045645509385849436512216925621032715e-02,1.000000000000000020816681711721685132943093776703e-02
4.700000000000002509104035652853781357407569885254e-01,2.762157567324100004846343381359474733471870422363e-02,7.549164458016380252480814760929206386208534240723e-02,1.000000000000000020816681711721685132943093776703e-02
4.800000000000002597921877622866304591298103332520e-01,2.768470591431358013290164876707422081381082534790e-02,7.550896841684691385143679553948459215462207794189e-02,1.000000000000000020816681711721685132943093776703e-02
4.900000000000002686739719592878827825188636779785e-01,2.774815024965269355528008077271806541830301284790e-02,7.552657865527045988329746251110918819904327392578e-02,1.000000000000000020816681711721685132943093776703e-02
5.000000000000002220446049250313080847263336181641e-01,2.781190918234259165653377010585245443508028984070e-02,7.554447532928895703285832041729008778929710388184e-02,1.000000000000000020816681711721685132943093776703e-02
5.100000000000002309263891220325604081153869628906e-01,2.787598321779038643142278885989071568474173545837e-02,7.556265847324931950179660589128616265952587127686e-02,1.000000000000000020816681711721685132943093776703e-02
5.200000000000002398081733190338127315044403076172e-01,2.794037286373388800919670416078588459640741348267e-02,7.558112812197941010605717337966780178248882293701e-02,1.000000000000000020816681711721685132943093776703e-02
5.300000000000002486899575160350650548934936523438e-01,2.800507863024945948149380114955420140177011489868e-02,7.559988431077634130073050755527219735085964202881e-02,1.000000000000000020816681711721685132943093776703e-02
5.400000000000002575717417130363173782825469970703e-01,2.807010102975983356632383447504253126680850982666e-02,7.561892707539476232714292791570187546312808990479e-02,1.000000000000000020816681711721685132943093776703e-02
5.500000000000002664535259100375697016716003417969e-01,2.813544057704193274149773174030997324734926223755e-02,7.563825645203500758206871523725567385554313659668e-02,1.000000000000000020816681711721685132943093776703e-02
5.600000000000002753353101070388220250606536865234e-01,2.820109778923464427524692155202501453459262847900e-02,7.565787247733110620906415988429216668009757995605e-02,1.000000000000000020816681711721685132943093776703e-02
5.700000000000002842170943040400743484497070312500e-01,2.826707318584660566518351743070525117218494415283e-02,7.567777518833869454528695541739580221474170684814e-02,1.000000000000000020816681711721685132943093776703e-02
5.800000000000002930988785010413266718387603759766e-01,2.833336728876396232168488609204359818249940872192e-02,7.569796462252285917937655312925926409661769866943e-02,1.000000000000000020816681711721685132943093776703e-02
5.900000000000003019806626980425789952278137207031e-01,2.839998062225810443459650400654936674982309341431e-02,7.571844081774574408694178373480099253356456756592e-02,1.000000000000000020816681711721685132943093776703e-02
6.000000000000003108624468950438313186168670654297e-01,2.846691371299339343159395809834677493199706077576e-02,7.573920381225418552162409469019621610641479492188e-02,1.000000000000000020816681711721685132943093776703e-02
6.100000000000003197442310920450836420059204101562e-01,2.853416709003487455875713862951670307666063308716e-02,7.576025364466711098376805466614314354956150054932e-02,1.000000000000000020816681711721685132943093776703e-02
6.200000000000003286260152890463359653949737548828e-01,2.860174128485596170556881645552493864670395851135e-02,7.578159035396288267794062676330213434994220733643e-02,1.000000000000000020816681711721685132943093776703e-02
6.300000000000003375077994860475882887840270996094e-01,2.866963683134611529101931637342204339802265167236e-02,7.580321397946650219257236358316731639206409454346e-02,1.000000000000000020816681711721685132943093776703e-02
6.400000000000003463895836830488406121730804443359e-01,2.873785426581849933302947874835808761417865753174e-02,7.582512456083670415729613978328416123986244201660e-02,1.000000000000000020816681711721685132943093776703e-02
6.500000000000003552713678800500929355621337890625e-01,2.880639412701762464008581332564062904566526412964e-02,7.584732213805291112240780648789950646460056304932e-02,1.000000000000000020816681711721685132943093776703e-02
6.600000000000003641531520770513452589511871337891e-01,2.887525695612696424730003741387918125838041305542e-02,7.586980675140207741602438318295753560960292816162e-02,1.000000000000000020816681711721685132943093776703e-02
6.700000000000003730349362740525975823402404785156e-01,2.894444329677657579136251797535805962979793548584e-02,7.589257844146539422336417146652820520102977752686e-02,1.000000000000000020816681711721685132943093776703e-02
6.800000000000003819167204710538499057292938232422e-01,2.901395369505067878268533831942477263510227203369e-02,7.591563724910492527708782972695189528167247772217e-02,1.000000000000000020816681711721685132943093776703e-02
6.900000000000003907985046680551022291183471679688e-01,2.908378869949523534699231674949260195717215538025e-02,7.593898321545002050303452278967597521841526031494e-02,1.000000000000000020816681711721685132943093776703e-02
7.000000000000003996802888650563545525074005126953e-01,2.915394886112550321133340958112967200577259063721e-02,7.596261638188367415480684030626434832811355590820e-02,1.000000000000000020816681711721685132943093776703e-02
7.100000000000004085620730620576068758964538574219e-01,2.922443473343357828175825829930545296519994735718e-02,7.598653679002878580384106044220970943570137023926e-02,1.000000000000000020816681711721685132943093776703e-02
7.200000000000004174438572590588591992855072021484e-01,2.929524687239591293486107304033794207498431205750e-02,7.601074448173417152929687290452420711517333984375e-02,1.000000000000000020816681711721685132943093776703e-02
7.300000000000004263256414560601115226745605468750e-01,2.936638583648083083987856412022665608674287796021e-02,7.603523949906057510794710196933010593056678771973e-02,1.000000000000000020816681711721685132943093776703e-02
7.400000000000004352074256530613638460636138916016e-01,2.943785218665600361687140207322954665869474411011e-02,7.606002188426648491503812010705587454140186309814e-02,1.000000000000000020816681711721685132943093776703e-02
7.500000000000004440892098500626161694526672363281e-01,2.950964648639593096435262964405410457402467727661e-02,7.608509167979381204727218346306472085416316986084e-02,1.000000000000000020816681711721685132943093776703e-02
7.600000000000004529709940470638684928417205810547e-01,2.958176930168938609244655424390657572075724601746e-02,7.611044892825348517906292045154259540140628814697e-02,1.000000000000000020816681711721685132943093776703e-02
7.700000000000004618527782440651208162307739257812e-01,2.965422120104686115604764040654117707163095474243e-02,7.613609367241083725197370313253486528992652893066e-02,1.000000000000000020816681711721685132943093776703e-02
7.800000000000004707345624410663731396198272705078e-01,2.972700275550798493240378661539580207318067550659e-02,7.616202595517096440858040296006947755813598632812e-02,1.000000000000000020816681711721685132943093776703e-02
7.900000000000004796163466380676254630088806152344e-01,2.980011453864891621257093845542840426787734031677e-02,7.618824581956384900394141368451528251171112060547e-02,1.000000000000000020816681711721685132943093776703e-02
8.000000000000004884981308350688777863979339599609e-01,2.987355712658973719286770176495338091626763343811e-02,7.621475330872937159476521173928631469607353210449e-02,1.000000000000000020816681711721685132943093776703e-02
8.100000000000004973799150320701301097869873046875e-01,2.994733109800181564130738820495025720447301864624e-02,7.624154846590226741742668536971905268728733062744e-02,1.000000000000000020816681711721685132943093776703e-02
8.200000000000005062616992290713824331760406494141e-01,3.002143703411515318624225301391561515629291534424e-02,7.626863133439680531022730747281457297503948211670e-02,1.000000000000000020816681711721685132943093776703e-02
8.300000000000005151434834260726347565650939941406e-01,3.009587551872572319666687690187245607376098632812e-02,7.629600195759146663565530843698070384562015533447e-02,1.000000000000000020816681711721685132943093776703e-02
8.400000000000005240252676230738870799541473388672e-01,3.017064713820277049860507645462348591536283493042e-02,7.632366037891336052467750050709582865238189697266e-02,1.000000000000000020816681711721685132943093776703e-02
8.500000000000005329070518200751394033432006835938e-01,3.024575248149612149983767039884696714580059051514e-02,7.635160664182261136545548652065917849540710449219e-02,1.000000000000000020816681711721685132943093776703e-02
8.600000000000005417888360170763917267322540283203e-01,3.032119214014344921181987047020811587572097778320e-02,7.637984078979651036966913579817628487944602966309e-02,1.000000000000000020816681711721685132943093776703e-02
8.700000000000005506706202140776440501213073730469e-01,3.039696670827753827159867228147049900144338607788e-02,7.640836286631361162768882877571741119027137756348e-02,1.000000000000000020816681711721685132943093776703e-02
8.800000000000005595524044110788963735103607177734e-01,3.047307678263352220815463056169392075389623641968e-02,7.643717291483759224135496879171114414930343627930e-02,1.000000000000000020816681711721685132943093776703e-02
8.900000000000005684341886080801486968994140625000e-01,3.054952296255611030040277853458974277600646018982e-02,7.646627097880104306781845480145420879125595092773e-02,1.000000000000000020816681711721685132943093776703e-02
