time,u0,u1,tau
0.000000000000000000000000000000000000000000000000e+00,-2.499999999999999444888487687421729788184165954590e-02,-4.999999999999998889776975374843459576368331909180e-02,1.000000000000000020816681711721685132943093776703e-02
1.000000000000000020816681711721685132943093776703e-02,-2.502634509858639097479304780335951363667845726013e-02,-5.000696828765071461075919501126918476074934005737e-02,1.000000000000000020816681711721685132943093776703e-02
2.000000000000000041633363423443370265886187553406e-02,-2.505288543562594547053912208411929896101355552673e-02,-5.001412934527402903706061465527454856783151626587e-02,1.000000000000000020816681711721685132943093776703e-02
2.999999999999999888977697537484345957636833190918e-02,-2.507962122695617593337580331080971518531441688538e-02,-5.002148324466899192985991362547792959958314895630e-02,1.000000000000000020816681711721685132943093776703e-02
4.000000000000000083266726846886740531772375106812e-02,-2.510655268963762551392981947628868510946631431580e-02,-5.002903005848752943096613421403162647038698196411e-02,1.000000000000000020816681711721685132943093776703e-02
5.000000000000000277555756156289135105907917022705e-02,-2.513368004195749849660757035962888039648532867432e-02,-5.003676986023272710291109888203209266066551208496e-02,1.000000000000000020816681711721685132943093776703e-02
6.000000000000000471844785465691529680043458938599e-02,-2.516100350343326158553125537764572072774171829224e-02,-5.004470272425708826657952954519714694470167160034e-02,1.000000000000000020816681711721685132943093776703e-02
7.000000000000000666133814775093924254179000854492e-02,-2.518852329481623131268719362196861766278743743896e-02,-5.005282872576076458326355123062967322766780853271e-02,1.000000000000000020816681711721685132943093776703e-02
8.000000000000000166533453693773481063544750213623e-02,-2.521623963809515797662719194249802967533469200134e-02,-5.006114794078973806445986838298267684876918792725e-02,1.000000000000000020816681711721685132943093776703e-02
8.999999999999999666933092612453037872910499572754e-02,-2.524415275649978876448820130917738424614071846008e-02,-5.006966044623396144830351772725407499819993972778e-02,1.000000000000000020816681711721685132943093776703e-02
9.999999999999999167332731531132594682276248931885e-02,-2.527226287450442046567111731292243348434567451477e-02,-5.007836631982549857600162113158148713409900665283e-02,1.000000000000000020816681711721685132943093776703e-02
1.099999999999999866773237044981215149164199829102e-01,-2.530057021783144524662567675932223210111260414124e-02,-5.008726564013660231822200330498162657022476196289e-02,1.000000000000000020816681711721685132943093776703e-02
1.199999999999999816813200936849170830100774765015e-01,-2.532907501345487213950669058704079361632466316223e-02,-5.009635848657775086811838605171942617744207382202e-02,1.000000000000000020816681711721685132943093776703e-02
1.299999999999999766853164828717126511037349700928e-01,-2.535777748960384159193637287899036891758441925049e-02,-5.010564493939567015656777471122040878981351852417e-02,1.000000000000000020816681711721685132943093776703e-02
1.399999999999999855671006798729649744927883148193e-01,-2.538667787576613307787276596627634717151522636414e-02,-5.011512507967132851183222896906954701989889144897e-02,1.000000000000000020816681711721685132943093776703e-02
1.499999999999999944488848768742172978818416595459e-01,-2.541577640269164495290254990322864614427089691162e-02,-5.012479898931785499138769068849796894937753677368e-02,1.000000000000000020816681711721685132943093776703e-02
1.600000000000000033306690738754696212708950042725e-01,-2.544507330239587777898080389604729134589433670044e-02,-5.013466675107845771375281174186966381967067718506e-02,1.000000000000000020816681711721685132943093776703e-02
1.700000000000000122124532708767219446599483489990e-01,-2.547456880816339336304210405614867340773344039917e-02,-5.014472844852429361806045449156954418867826461792e-02,1.000000000000000020816681711721685132943093776703e-02
1.800000000000000210942374678779742680490016937256e-01,-2.550426315455126685671771724628342781215906143188e-02,-5.015498416605231046805357664197799749672412872314e-02,1.000000000000000020816681711721685132943093776703e-02
1.900000000000000299760216648792265914380550384521e-01,-2.553415657739252497826498711219755932688713073730e-02,-5.016543398888303334492988483361841645091772079468e-02,1.000000000000000020816681711721685132943093776703e-02
2.000000000000000388578058618804789148271083831787e-01,-2.556424931379957035670891229983681114390492439270e-02,-5.017607800305833726239868042284797411412000656128e-02,1.000000000000000020816681711721685132943093776703e-02
2.100000000000000477395900588817312382161617279053e-01,-2.559454160216758852874896490448008989915251731873e-02,-5.018691629543916427058647400372137781232595443726e-02,1.000000000000000020816681711721685132943093776703e-02
2.200000000000000566213742558829835616052150726318e-01,-2.562503368217796187455981282710126833990216255188e-02,-5.019794895370321974326088820816949009895324707031e-02,1.000000000000000020816681711721685132943093776703e-02
2.300000000000000655031584528842358849942684173584e-01,-2.565572579480163845078166673374653328210115432739e-02,-5.020917606634260621500942534112255088984966278076e-02,1.000000000000000020816681711721685132943093776703e-02
2.400000000000000743849426498854882083833217620850e-01,-2.568661818230251817074538678298267768695950508118e-02,-5.022059772266146415731213892286177724599838256836e-02,1.000000000000000020816681711721685132943093776703e-02
2.500000000000000555111512312578270211815834045410e-01,-2.571771108824081122912197372443188214674592018127e-02,-5.023221401277350867120574662294529844075441360474e-02,1.000000000000000020816681711721685132943093776703e-02
2.600000000000000643929354282590793445706367492676e-01,-2.574900475747638611823120413646392989903688430786e-02,-5.024402502759960781331116663750435691326856613159e-02,1.000000000000000020816681711721685132943093776703e-02
2.700000000000000732747196252603316679596900939941e-01,-2.578049943617210723600940980304585536941885948181e-02,-5.025603085886524296066468764365708921104669570923e-02,1.000000000000000020816681711721685132943093776703e-02
2.800000000000000821565038222615839913487434387207e-01,-2.581219537179716208563640122974902624264359474182e-02,-5.026823159909800387001865829006419517099857330322e-02,1.000000000000000020816681711721685132943093776703e-02
2.900000000000000910382880192628363147377967834473e-01,-2.584409281313036765848067943807109259068965911865e-02,-5.028062734162497965373361807905894238501787185669e-02,1.000000000000000020816681711721685132943093776703e-02
3.000000000000000999200722162640886381268501281738e-01,-2.587619201026346640870379189891536952927708625793e-02,-5.029321818057015669456433215600554831326007843018e-02,1.000000000000000020816681711721685132943093776703e-02
3.100000000000001088018564132653409615159034729004e-01,-2.590849321460442569731164041968440869823098182678e-02,-5.030600421085175411040069093360216356813907623291e-02,1.000000000000000020816681711721685132943093776703e-02
3.200000000000001176836406102665932849049568176270e-01,-2.594099667888069560284236558800330385565757751465e-02,-5.031898552817953840232689799449872225522994995117e-02,1.000000000000000020816681711721685132943093776703e-02
3.300000000000001265654248072678456082940101623535e-01,-2.597370265714248060984203902989975176751613616943e-02,-5.033216222905206871374161892163101583719253540039e-02,1.000000000000000020816681711721685132943093776703e-02
3.400000000000001354472090042690979316830635070801e-01,-2.600661140476598701121169199268479133024811744690e-02,-5.034553441075393515058422622132638934999704360962e-02,1.000000000000000020816681711721685132943093776703e-02
3.500000000000001443289932012703502550721168518066e-01,-2.603972317845665643276653611337678739801049232483e-02,-5.035910217135294159040981298858241643756628036499e-02,1.000000000000000020816681711721685132943093776703e-02
3.600000000000001532107773982716025784611701965332e-01,-2.607303823625238894945432832628284813836216926575e-02,-5.037286560969723991920687922174693085253238677979e-02,1.000000000000000020816681711721685132943093776703e-02
3.700000000000001620925615952728549018502235412598e-01,-2.610655683752675926267983186335186474025249481201e-02,-5.038682482541242263485159469382779207080602645874e-02,1.000000000000000020816681711721685132943093776703e-02
3.800000000000001709743457922741072252392768859863e-01,-2.614027924299221553039451748645660700276494026184e-02,-5.040097991889861545056206182380265090614557266235e-02,1.000000000000000020816681711721685132943093776703e-02
3.900000000000001798561299892753595486283302307129e-01,-2.617420571470325738050455299799068598076701164246e-02,-5.041533099132745887605011603227467276155948638916e-02,1.000000000000000020816681711721685132943093776703e-02
4.000000000000001887379141862766118720173835754395e-01,-2.620833651605961739372574470507970545440912246704e-02,-5.042987814463910367646093391158501617610454559326e-02,1.000000000000000020816681711721685132943093776703e-02
4.100000000000001976196983832778641954064369201660e-01,-2.624267191180942176975676716210728045552968978882e-02,-5.044462148153915775905531404532666783779859542847e-02,1.000000000000000020816681711721685132943093776703e-02
4.200000000000002065014825802791165187954902648926e-01,-2.627721216805234405455848900601267814636230468750e-02,-5.045956110549555673205901484834612347185611724854e-02,1.000000000000000020816681711721685132943093776703e-02
4.300000000000002153832667772803688421845436096191e-01,-2.631195755224272764261073120906075928360223770142e-02,-5.047469712073542058572428459228831343352794647217e-02,1.000000000000000020816681711721685132943093776703e-02
4.400000000000002242650509742816211655735969543457e-01,-2.634690833319272562640378509968286380171775817871e-02,-5.049002963224187567892187189499964006245136260986e-02,1.000000000000000020816681711721685132943093776703e-02
4.500000000000002331468351712828734889626502990723e-01,-2.638206478107540595146041084717580815777182579041e-02,-5.050555874575081427568790104487561620771884918213e-02,1.000000000000000020816681711721685132943093776703e-02
4.600000000000002420286193682841258123517036437988e-01,-2.641742716742784616301698008555831620469689369202e-02,-5.052128456774759857061951606738148257136344909668e-02,1.000000000000000020816681711721685132943093776703e-02
4.700000000000002509104035652853781357407569885254e-01,-2.645299576515423162215157049104163888841867446899e-02,-5.053720720546376471427052479157282505184412002563e-02,1.000000000000000020816681711721685132943093776703e-02
4.800000000000002597921877622866304591298103332520e-01,-2.648877084852891902744254082335828570649027824402e-02,-5.055332676687363663292629212264728266745805740356e-02,1.000000000000000020816681711721685132943093776703e-02
4.900000000000002686739719592878827825188636779785e-01,-2.652475269319950687552100987431913381442427635193e-02,-5.056964336069093290948472940726787783205509185791e-02,1.000000000000000020816681711721685132943093776703e-02
5.000000000000002220446049250313080847263336181641e-01,-2.656094157618988163549467174107121536508202552795e-02,-5.058615709636531121429214863383094780147075653076e-02,1.000000000000000020816681711721685132943093776703e-02
5.100000000000002309263891220325604081153869628906e-01,-2.659733777590325351503075523851293837651610374451e-02,-5.060286808407885028593398146767867729067802429199e-02,1.000000000000000020816681711721685132943093776703e-02
5.200000000000002398081733190338127315044403076172e-01,-2.663394157212518181809812745086674112826585769653e-02,-5.061977643474253191202549828631163109093904495239e-02,1.000000000000000020816681711721685132943093776703e-02
5.300000000000002486899575160350650548934936523438e-01,-2.667075324602658989436854142240918008610606193542e-02,-5.063688225999263964327568032786075491458177566528e-02,1.000000000000000020816681711721685132943093776703e-02
5.400000000000002575717417130363173782825469970703e-01,-2.670777308016676274138312408013007370755076408386e-02,-5.065418567218712281308157230341748800128698348999e-02,1.000000000000000020816681711721685132943093776703e-02
5.500000000000002664535259100375697016716003417969e-01,-2.674500135849633419837800829554907977581024169922e-02,-5.067168678440191892375921156599360983818769454956e-02,1.000000000000000020816681711721685132943093776703e-02
5.600000000000002753353101070388220250606536865234e-01,-2.678243836636026720121606103930389508605003356934e-02,-5.068938571042723439941113383611082099378108978271e-02,1.000000000000000020816681711721685132943093776703e-02
5.700000000000002842170943040400743484497070312500e-01,-2.682008439050080628174299590682494454085826873779e-02,-5.070728256476376288874874376233492512255907058716e-02,1.000000000000000020816681711721685132943093776703e-02
5.800000000000002930988785010413266718387603759766e-01,-2.685793971906043700603738955123844789341092109680e-02,-5.072537746261886887344516594566812273114919662476e-02,1.000000000000000020816681711721685132943093776703e-02
5.900000000000003019806626980425789952278137207031e-01,-2.689600464158481765708508248735597589984536170959e-02,-5.074367051990272270423076861334266141057014465332e-02,1.000000000000000020816681711721685132943093776703e-02
6.000000000000003108624468950438313186168670654297e-01,-2.693427944902570397855967598843562882393598556519e-02,-5.076216185322438012583745603478746488690376281738e-02,1.000000000000000020816681711721685132943093776703e-02
6.100000000000003197442310920450836420059204101562e-01,-2.697276443374386697970912507571483729407191276550e-02,-5.078085157988783404636734530868125148117542266846e-02,1.000000000000000020816681711721685132943093776703e-02
6.200000000000003286260152890463359653949737548828e-01,-2.701145988951198645411366783264384139329195022583e-02,-5.079973981788799691772240407772187609225511550903e-02,1.000000000000000020816681711721685132943093776703e-02
6.300000000000003375077994860475882887840270996094e-01,-2.705036611151754449844375471911916974931955337524e-02,-5.081882668590664148267066480002540629357099533081e-02,1.000000000000000020816681711721685132943093776703e-02
6.400000000000003463895836830488406121730804443359e-01,-2.708948339636569474508931421041779685765504837036e-02,-5.083811230330829988854901557715493254363536834717e-02,1.000000000000000020816681711721685132943093776703e-02
6.500000000000003552713678800500929355621337890625e-01,-2.712881204208212465589511452890292275696992874146e-02,-5.085759679013610035092085581709397956728935241699e-02,1.000000000000000020816681711721685132943093776703e-02
6.600000000000003641531520770513452589511871337891e-01,-2.716835234811591087700222146850137505680322647095e-02,-5.087728026710756912276423236107802949845790863037e-02,1.000000000000000020816681711721685132943093776703e-02
6.700000000000003730349362740525975823402404785156e-01,-2.720810461534234683811384059026750037446618080139e-02,-5.089716285561038389140264825982740148901939392090e-02,1.000000000000000020816681711721685132943093776703e-02
6.800000000000003819167204710538499057292938232422e-01,-2.724806914606577382120811137156124459579586982727e-02,-5.091724467769805084760292857026797719299793243408e-02,1.000000000000000020816681711721685132943093776703e-02
6.900000000000003907985046680551022291183471679688e-01,-2.728824624402239468201614158715528901666402816772e-02,-5.093752585608557481577918224502354860305786132812e-02,1.000000000000000020816681711721685132943093776703e-02
7.000000000000003996802888650563545525074005126953e-01,-2.732863621438306328537137801504286471754312515259e-02,-5.095800651414503223968210932071087881922721862793e-02,1.000000000000000020816681711721685132943093776703e-02
7.100000000000004085620730620576068758964538574219e-01,-2.736923936375607741000592909585975576192140579224e-02,-5.097868677590112335140659638454962987452745437622e-02,1.000000000000000020816681711721685132943093776703e-02
7.200000000000004174438572590588591992855072021484e-01,-2.741005600018995083666517587062116945162415504456e-02,-5.099956676602668270703588859760202467441558837891e-02,1.000000000000000020816681711721685132943093776703e-02
7.300000000000004263256414560601115226745605468750e-01,-2.745108643317617155843457510400185128673911094666e-02,-5.102064660983808563887720310958684422075748443604e-02,1.000000000000000020816681711721685132943093776703e-02
7.400000000000004352074256530613638460636138916016e-01,-2.749233097365195305217255850038782227784395217896e-02,-5.104192643329068246327295810260693542659282684326e-02,1.000000000000000020816681711721685132943093776703e-02
7.500000000000004440892098500626161694526672363281e-01,-2.753378993400296820270867215185717213898897171021e-02,-5.106340636297409391053392369030916597694158554077e-02,1.000000000000000020816681711721685132943093776703e-02
7.600000000000004529709940470638684928417205810547e-01,-2.757546362806606934925390817170409718528389930725e-02,-5.108508652610752737155408453872951213270425796509e-02,1.000000000000000020816681711721685132943093776703e-02
7.700000000000004618527782440651208162307739257812e-01,-2.761735237113199792347018046712037175893783569336e-02,-5.110696705053498906101694387871248181909322738647e-02,1.000000000000000020816681711721685132943093776703e-02
7.800000000000004707345624410663731396198272705078e-01,-2.765945647994808367919894465103425318375229835510e-02,-5.112904806472048230281401970387378241866827011108e-02,1.000000000000000020816681711721685132943093776703e-02
7.900000000000004796163466380676254630088806152344e-01,-2.770177627272092310550810623226425377652049064636e-02,-5.115132969774311560984259017459407914429903030396e-02,1.000000000000000020816681711721685132943093776703e-02
8.000000000000004884981308350688777863979339599609e-01,-2.774431206911905090084502489844453521072864532471e-02,-5.117381207929218994712172730032762046903371810913e-02,1.000000000000000020816681711721685132943093776703e-02
8.100000000000004973799150320701301097869873046875e-01,-2.778706419027560450829561489172192523255944252014e-02,-5.119649533966219578928757982794195413589477539062e-02,1.000000000000000020816681711721685132943093776703e-02
8.200000000000005062616992290713824331760406494141e-01,-2.783003295879095742582087780192523496225476264954e-02,-5.121937960974780323919475222282926551997661590576e-02,1.000000000000000020816681711721685132943093776703e-02
8.300000000000005151434834260726347565650939941406e-01,-2.787321869873535945538733926696295384317636489868e-02,-5.124246502103874112421522113436367362737655639648e-02,1.000000000000000020816681711721685132943093776703e-02
8.400000000000005240252676230738870799541473388672e-01,-2.791662173565154919652187004430743400007486343384e-02,-5.126575170561467609253725186135852709412574768066e-02,1.000000000000000020816681711721685132943093776703e-02
8.500000000000005329070518200751394033432006835938e-01,-2.796024239655735613152565122163650812581181526184e-02,-5.128923979613998762605575620909803546965122222900e-02,1.000000000000000020816681711721685132943093776703e-02
8.600000000000005417888360170763917267322540283203e-01,-2.800408100994830618013509138108929619193077087402e-02,-5.131292942585852223658093862468376755714416503906e-02,1.000000000000000020816681711721685132943093776703e-02
8.700000000000005506706202140776440501213073730469e-01,-2.804813790580018215137236836653755744919180870056e-02,-5.133682072858827133421399935286899562925100326538e-02,1.000000000000000020816681711721685132943093776703e-02
8.800000000000005595524044110788963735103607177734e-01,-2.809241341557160154263073081892798654735088348389e-02,-5.136091383871600052346551024129439610987901687622e-02,1.000000000000000020816681711721685132943093776703e-02
8.900000000000005684341886080801486968994140625000e-01,-2.813690787220656311373723212909681024029850959778e-02,-5.138520889119182338822255928789672907441854476929e-02,1.000000000000000020816681711721685132943093776703e-02
