time,u0,u1,tau
0.000000000000000000000000000000000000000000000000e+00,-1.249999999999999722444243843710864894092082977295e-02,-7.499999999999999722444243843710864894092082977295e-02,1.000000000000000020816681711721685132943093776703e-02
1.000000000000000020816681711721685132943093776703e-02,-1.254748618630346056190827397358589223586022853851e-02,-7.500224924400346326880395508851506747305393218994e-02,1.000000000000000020816681711721685132943093776703e-02
2.000000000000000041633363423443370265886187553406e-02,-1.259525965236677098879614078441591118462383747101e-02,-7.500478699038694296863383215168141759932041168213e-02,1.000000000000000020816681711721685132943093776703e-02
2.999999999999999888977697537484345957636833190918e-02,-1.264332076281442056309156640736546250991523265839e-02,-7.500761327198776640123867309739580377936363220215e-02,1.000000000000000020816681711721685132943093776703e-02
4.000000000000000083266726846886740531772375106812e-02,-1.269166988415489603914121374828027910552918910980e-02,-7.501072812277065349206850441987626254558563232422e-02,1.000000000000000020816681711721685132943093776703e-02
5.000000000000000277555756156289135105907917022705e-02,-1.274030738478951034486907900600272114388644695282e-02,-7.501413157782285678898404057690640911459922790527e-02,1.000000000000000020816681711721685132943093776703e-02
6.000000000000000471844785465691529680043458938599e-02,-1.278923363502122712009878569006104953587055206299e-02,-7.501782367334922096979710204323055222630500793457e-02,1.000000000000000020816681711721685132943093776703e-02
7.000000000000000666133814775093924254179000854492e-02,-1.283844900706346617291764289348066085949540138245e-02,-7.502180444666717296087199429166503250598907470703e-02,1.000000000000000020816681711721685132943093776703e-02
8.000000000000000166533453693773481063544750213623e-02,-1.288795387504888464991203989029600052163004875183e-02,-7.502607393620164266678784770192578434944152832031e-02,1.000000000000000020816681711721685132943093776703e-02
8.999999999999999666933092612453037872910499572754e-02,-1.293774861503815300223241280264119268395006656647e-02,-7.503063218147994206663753402608563192188739776611e-02,1.000000000000000020816681711721685132943093776703e-02
9.999999999999999167332731531132594682276248931885e-02,-1.298783360502871013497649954615553724579513072968e-02,-7.503547922312653328802412033837754279375076293945e-02,1.000000000000000020816681711721685132943093776703e-02
1.099999999999999866773237044981215149164199829102e-01,-1.303820922496349773989088305370387388393282890320e-02,-7.504061510285771341433047609825734980404376983643e-02,1.000000000000000020816681711721685132943093776703e-02
1.199999999999999816813200936849170830100774765015e-01,-1.308887585673968942390210656867566285654902458191e-02,-7.504603986347629929198888021346647292375564575195e-02,1.000000000000000020816681711721685132943093776703e-02
1.299999999999999766853164828717126511037349700928e-01,-1.313983388421739555151912526298474404029548168182e-02,-7.505175354886614580429693432961357757449150085449e-02,1.000000000000000020816681711721685132943093776703e-02
1.399999999999999855671006798729649744927883148193e-01,-1.319108369322835594417142601741943508386611938477e-02,-7.505775620398669190080909174866974353790283203125e-02,1.000000000000000020816681711721685132943093776703e-02
1.499999999999999944488848768742172978818416595459e-01,-1.324262567158461870175933938753587426617741584778e-02,-7.506404787486734009327449257398257032036781311035e-02,1.000000000000000020816681711721685132943093776703e-02
1.600000000000000033306690738754696212708950042725e-01,-1.329446020908720341169306777828751364722847938538e-02,-7.507062860860180819599918322637677192687988281250e-02,1.000000000000000020816681711721685132943093776703e-02
1.700000000000000122124532708767219446599483489990e-01,-1.334658769753474354125000189696947927586734294891e-02,-7.507749845334239779948148907351423986256122589111e-02,1.000000000000000020816681711721685132943093776703e-02
1.800000000000000210942374678779742680490016937256e-01,-1.339900853073212709520856122935583698563277721405e-02,-7.508465745829420723289615580142708495259284973145e-02,1.000000000000000020816681711721685132943093776703e-02
1.900000000000000299760216648792265914380550384521e-01,-1.345172310449910951790641888692334759980440139771e-02,-7.509210567370923350427602827039663679897785186768e-02,1.000000000000000020816681711721685132943093776703e-02
2.000000000000000388578058618804789148271083831787e-01,-1.350473181667891618695787059323265566490590572357e-02,-7.509984315088041872954249811300542205572128295898e-02,1.000000000000000020816681711721685132943093776703e-02
2.100000000000000477395900588817312382161617279053e-01,-1.355803506714683970280077573988819494843482971191e-02,-7.510786994213559941702129663099185563623905181885e-02,1.000000000000000020816681711721685132943093776703e-02
2.200000000000000566213742558829835616052150726318e-01,-1.361163325781880768794440683677748893387615680695e-02,-7.511618610083141411859486424873466603457927703857e-02,1.000000000000000020816681711721685132943093776703e-02
2.300000000000000655031584528842358849942684173584e-01,-1.366552679265994711677034700869626249186694622040e-02,-7.512479168134711393634006526554003357887268066406e-02,1.000000000000000020816681711721685132943093776703e-02
2.400000000000000743849426498854882083833217620850e-01,-1.371971607769313303282210370070970384404063224792e-02,-7.513368673907827588465124790673144161701202392578e-02,1.000000000000000020816681711721685132943093776703e-02
2.500000000000000555111512312578270211815834045410e-01,-1.377420152100752338830691456905697123147547245026e-02,-7.514287133043047461899988093136926181614398956299e-02,1.000000000000000020816681711721685132943093776703e-02
2.600000000000000643929354282590793445706367492676e-01,-1.382898353276707827108626958079184987582266330719e-02,-7.515234551281281538681611209540278650820255279541e-02,1.000000000000000020816681711721685132943093776703e-02
2.700000000000000732747196252603316679596900939941e-01,-1.388406252521906872332557725258084246888756752014e-02,-7.516210934463146697837032661482226103544235229492e-02,1.000000000000000020816681711721685132943093776703e-02
2.800000000000000821565038222615839913487434387207e-01,-1.393943891270256821290907112143031554296612739563e-02,-7.517216288528304202198881966978660784661769866943e-02,1.000000000000000020816681711721685132943093776703e-02
2.900000000000000910382880192628363147377967834473e-01,-1.399511311165693543123733633137817378155887126923e-02,-7.518250619514793564590604546538088470697402954102e-02,1.000000000000000020816681711721685132943093776703e-02
3.000000000000000999200722162640886381268501281738e-01,-1.405108554063028494796050438253587344661355018616e-02,-7.519313933558358087339001940563321113586425781250e-02,1.000000000000000020816681711721685132943093776703e-02
3.100000000000001088018564132653409615159034729004e-01,-1.410735662028793878375321213525239727459847927094e-02,-7.520406236891757911777744993742089718580245971680e-02,1.000000000000000020816681711721685132943093776703e-02
3.200000000000001176836406102665932849049568176270e-01,-1.416392677342087277891913288385694613680243492126e-02,-7.521527535844081679972106257991981692612171173096e-02,1.000000000000000020816681711721685132943093776703e-02
3.300000000000001265654248072678456082940101623535e-01,-1.422079642495414214531379570871649775654077529907e-02,-7.522677836840041543098323018057271838188171386719e-02,1.000000000000000020816681711721685132943093776703e-02
3.400000000000001354472090042690979316830635070801e-01,-1.427796600195530354882045287467917660251259803772e-02,-7.523857146399268169822960317105753347277641296387e-02,1.000000000000000020816681711721685132943093776703e-02
3.500000000000001443289932012703502550721168518066e-01,-1.433543593364281810986771148463958525098860263824e-02,-7.525065471135591876894466167868813499808311462402e-02,1.000000000000000020816681711721685132943093776703e-02
3.600000000000001532107773982716025784611701965332e-01,-1.439320665139444919977673720268285251222550868988e-02,-7.526302817756312657504480512216105125844478607178e-02,1.000000000000000020816681711721685132943093776703e-02
3.700000000000001620925615952728549018502235412598e-01,-1.445127858875563768570327027873645420186221599579e-02,-7.527569193061471597427924962175893597304821014404e-02,1.000000000000000020816681711721685132943093776703e-02
3.800000000000001709743457922741072252392768859863e-01,-1.450965218144787717557964157322203391231596469879e-02,-7.528864603943102862260161600715946406126022338867e-02,1.000000000000000020816681711721685132943093776703e-02
3.900000000000001798561299892753595486283302307129e-01,-1.456832786737706671165160088321499642916023731232e-02,-7.530189057384481521317809438187396153807640075684e-02,1.000000000000000020816681711721685132943093776703e-02
4.000000000000001887379141862766118720173835754395e-01,-1.462730608664186172929166929179700673557817935944e-02,-7.531542560459363044866876180094550363719463348389e-02,1.000000000000000020816681711721685132943093776703e-02
4.100000000000001976196983832778641954064369201660e-01,-1.468658728154200766857773174933754489757120609283e-02,-7.532925120331213086899424524744972586631774902344e-02,1.000000000000000020816681711721685132943093776703e-02
4.200000000000002065014825802791165187954902648926e-01,-1.474617189658665797336034586351161124184727668762e-02,-7.534336744252428941237553772225510329008102416992e-02,1.000000000000000020816681711721685132943093776703e-02
4.300000000000002153832667772803688421845436096191e-01,-1.480606037850269555977700264293162035755813121796e-02,-7.535777439563548507628354400367243215441703796387e-02,1.000000000000000020816681711721685132943093776703e-02
4.400000000000002242650509742816211655735969543457e-01,-1.486625317624302479446729563505869009532034397125e-02,-7.537247213692455094502520296373404562473297119141e-02,1.000000000000000020816681711721685132943093776703e-02
4.500000000000002331468351712828734889626502990723e-01,-1.492675074099486694223504201772811939008533954620e-02,-7.538746074153569731723933955436223186552524566650e-02,1.000000000000000020816681711721685132943093776703e-02
4.600000000000002420286193682841258123517036437988e-01,-1.498755352618803479702869196898973314091563224792e-02,-7.540274028547036544445347772125387564301490783691e-02,1.000000000000000020816681711721685132943093776703e-02
4.700000000000002509104035652853781357407569885254e-01,-1.504866198750320731292173803694822709076106548309e-02,-7.541831084557894249176257517319754697382450103760e-02,1.000000000000000020816681711721685132943093776703e-02
4.800000000000002597921877622866304591298103332520e-01,-1.511007658288017821424098485749709652736783027649e-02,-7.543417249955243486514433470802032388746738433838e-02,1.000000000000000020816681711721685132943093776703e-02
4.900000000000002686739719592878827825188636779785e-01,-1.517179777252610807514177082566675380803644657135e-02,-7.545032532591403051647205302288057282567024230957e-02,1.000000000000000020816681711721685132943093776703e-02
5.000000000000002220446049250313080847263336181641e-01,-1.523382601892375905194842999890170176513493061066e-02,-7.546676940401055022622500700890668667852878570557e-02,1.000000000000000020816681711721685132943093776703e-02
5.100000000000002309263891220325604081153869628906e-01,-1.529616178683972094187737411630223505198955535889e-02,-7.548350481400382949725980097355204634368419647217e-02,1.000000000000000020816681711721685132943093776703e-02
5.200000000000002398081733190338127315044403076172e-01,-1.535880554333262509869584278021648060530424118042e-02,-7.550053163686194779291582790392567403614521026611e-02,1.000000000000000020816681711721685132943093776703e-02
5.300000000000002486899575160350650548934936523438e-01,-1.542175775776135140948674973060406045988202095032e-02,-7.551784995435043001954511510120937600731849670410e-02,1.000000000000000020816681711721685132943093776703e-02
5.400000000000002575717417130363173782825469970703e-01,-1.548501890179322312834919728175009367987513542175e-02,-7.553545984902332310895189948496408760547637939453e-02,1.000000000000000020816681711721685132943093776703e-02
5.500000000000002664535259100375697016716003417969e-01,-1.554858944941218783231118294452244299463927745819e-02,-7.555336140421416157852974038178217597305774688721e-02,1.000000000000000020816681711721685132943093776703e-02
5.600000000000002753353101070388220250606536865234e-01,-1.561246987692699664251883007182186702266335487366e-02,-7.557155470402682206909616979828570038080215454102e-02,1.000000000000000020816681711721685132943093776703e-02
5.700000000000002842170943040400743484497070312500e-01,-1.567666066297936783291433471276832278817892074585e-02,-7.559003983332630849378830362184089608490467071533e-02,1.000000000000000020816681711721685132943093776703e-02
5.800000000000002930988785010413266718387603759766e-01,-1.574116228855214350002000855965889059007167816162e-02,-7.560881687772944004244379812007537111639976501465e-02,1.000000000000000020816681711721685132943093776703e-02
5.900000000000003019806626980425789952278137207031e-01,-1.580597523697742715076408615004766033962368965149e-02,-7.562788592359540040810372829582775011658668518066e-02,1.000000000000000020816681711721685132943093776703e-02
6.000000000000003108624468950438313186168670654297e-01,-1.587109999394473169864738792966818436980247497559e-02,-7.564724705801620374678861935535678640007972717285e-02,1.000000000000000020816681711721685132943093776703e-02
6.100000000000003197442310920450836420059204101562e-01,-1.593653704750909796961089170963532524183392524719e-02,-7.566690036880704961497201566089643165469169616699e-02,1.000000000000000020816681711721685132943093776703e-02
6.200000000000003286260152890463359653949737548828e-01,-1.600228688809920973845635217003291472792625427246e-02,-7.568684594449659464032720279647037386894226074219e-02,1.000000000000000020816681711721685132943093776703e-02
6.300000000000003375077994860475882887840270996094e-01,-1.606835000852550876526692036350141279399394989014e-02,-7.570708387431711317017146711805253289639949798584e-02,1.000000000000000020816681711721685132943093776703e-02
6.400000000000003463895836830488406121730804443359e-01,-1.613472690398828207625214758991205599159002304077e-02,-7.572761424819450526424446934470324777066707611084e-02,1.000000000000000020816681711721685132943093776703e-02
6.500000000000003552713678800500929355621337890625e-01,-1.620141807208576312238079708549776114523410797119e-02,-7.574843715673827693191100252079195342957973480225e-02,1.000000000000000020816681711721685132943093776703e-02
6.600000000000003641531520770513452589511871337891e-01,-1.626842401282220171299108812945632962509989738464e-02,-7.576955269123133995812224839028203859925270080566e-02,1.000000000000000020816681711721685132943093776703e-02
6.700000000000003730349362740525975823402404785156e-01,-1.633574522861594088829484405778202926740050315857e-02,-7.579096094361977009601361032764543779194355010986e-02,1.000000000000000020816681711721685132943093776703e-02
6.800000000000003819167204710538499057292938232422e-01,-1.640338222430746603630602464818366570398211479187e-02,-7.581266200650237097047323686638264916837215423584e-02,1.000000000000000020816681711721685132943093776703e-02
6.900000000000003907985046680551022291183471679688e-01,-1.647133550716747135700401827307359781116247177124e-02,-7.583465597312021022613492959862924180924892425537e-02,1.000000000000000020816681711721685132943093776703e-02
7.000000000000003996802888650563545525074005126953e-01,-1.653960558690489857092131842364324256777763366699e-02,-7.585694293734601689749297293019481003284454345703e-02,1.000000000000000020816681711721685132943093776703e-02
7.100000000000004085620730620576068758964538574219e-01,-1.660819297567496521939034437309601344168186187744e-02,-7.587952299367344000113888569103437475860118865967e-02,1.000000000000000020816681711721685132943093776703e-02
7.200000000000004174438572590588591992855072021484e-01,-1.667709818808719990368416574710863642394542694092e-02,-7.590239623720622386127132585897925309836864471436e-02,1.000000000000000020816681711721685132943093776703e-02
7.300000000000004263256414560601115226745605468750e-01,-1.674632174121344976858161146537895547226071357727e-02,-7.592556276364725853511572495335713028907775878906e-02,1.000000000000000020816681711721685132943093776703e-02
7.400000000000004352074256530613638460636138916016e-01,-1.681586415459589492482628259040211560204625129700e-02,-7.594902266928754697161707554187159985303878784180e-02,1.000000000000000020816681711721685132943093776703e-02
7.500000000000004440892098500626161694526672363281e-01,-1.688572595025504205490385345456161303445696830750e-02,-7.597277605099499175889121715954388491809368133545e-02,1.000000000000000020816681711721685132943093776703e-02
7.600000000000004529709940470638684928417205810547e-01,-1.695590765269771801881937278722034534439444541931e-02,-7.599682300620312636052489096982753835618495941162e-02,1.000000000000000020816681711721685132943093776703e-02
7.700000000000004618527782440651208162307739257812e-01,-1.702640978892504958208675702735490631312131881714e-02,-7.602116363289969369620990846669883467257022857666e-02,1.000000000000000020816681711721685132943093776703e-02
7.800000000000004707345624410663731396198272705078e-01,-1.709723288844044314371828363618988078087568283081e-02,-7.604579802961512757786266547554987482726573944092e-02,1.000000000000000020816681711721685132943093776703e-02
7.900000000000004796163466380676254630088806152344e-01,-1.716837748325754017808542073453281773254275321960e-02,-7.607072629541089536786557800951413810253143310547e-02,1.000000000000000020816681711721685132943093776703e-02
8.000000000000004884981308350688777863979339599609e-01,-1.723984410790817961567356064733758103102445602417e-02,-7.609594852986777124836947905350825749337673187256e-02,1.000000000000000020816681711721685132943093776703e-02
8.100000000000004973799150320701301097869873046875e-01,-1.731163329945033940715504172658256720751523971558e-02,-7.612146483307390132377889813142246566712856292725e-02,1.000000000000000020816681711721685132943093776703e-02
8.200000000000005062616992290713824331760406494141e-01,-1.738374559747608502635607408137730089947581291199e-02,-7.614727530561284096766172524439753033220767974854e-02,1.000000000000000020816681711721685132943093776703e-02
8.300000000000005151434834260726347565650939941406e-01,-1.745618154411948674820109772554133087396621704102e-02,-7.617338004855138400284175759225036017596721649170e-02,1.000000000000000020816681711721685132943093776703e-02
8.400000000000005240252676230738870799541473388672e-01,-1.752894168406455427389190049325407017022371292114e-02,-7.619977916342735024812782285152934491634368896484e-02,1.000000000000000020816681711721685132943093776703e-02
8.500000000000005329070518200751394033432006835938e-01,-1.760202656455314360051112032579112565144896507263e-02,-7.622647275223717877601359305117512121796607971191e-02,1.000000000000000020816681711721685132943093776703e-02
8.600000000000005417888360170763917267322540283203e-01,-1.767543673539286389062574755826062755659222602844e-02,-7.625346091742345178143835937589756213128566741943e-02,1.000000000000000020816681711721685132943093776703e-02
8.700000000000005506706202140776440501213073730469e-01,-1.774917274896497393354977134549699258059263229370e-02,-7.628074376186226579488192101052845828235149383545e-02,1.000000000000000020816681711721685132943093776703e-02
8.800000000000005595524044110788963735103607177734e-01,-1.782323516023226819826597022711212048307061195374e-02,-7.630832138885045023979358802534989081323146820068e-02,1.000000000000000020816681711721685132943093776703e-02
8.900000000000005684341886080801486968994140625000e-01,-1.789762452674696635579465464616077952086925506592e-02,-7.633619390209271660108214518913882784545421600342e-02,1.000000000000000020816681711721685132943093776703e-02
