time,u0,u1,tau
0.000000000000000000000000000000000000000000000000e+00,2.500000000000002220446049250313080847263336181641e-02,-3.749999999999999167332731531132594682276248931885e-02,1.000000000000000020816681711721685132943093776703e-02
1.000000000000000020816681711721685132943093776703e-02,2.498188350661093709570437226830108556896448135376e-02,-3.749210121988284794003476463331026025116443634033e-02,1.000000000000000020816681711721685132943093776703e-02
2.000000000000000041633363423443370265886187553406e-02,2.496363248513875157663655102169286692515015602112e-02,-3.748434728901177404036815232757362537086009979248e-02,1.000000000000000020816681711721685132943093776703e-02
2.999999999999999888977697537484345957636833190918e-02,2.494524691675425662196197151843080064281821250916e-02,-3.747673819870300099266202664693992119282484054565e-02,1.000000000000000020816681711721685132943093776703e-02
4.000000000000000083266726846886740531772375106812e-02,2.492672678190147039778423732059309259057044982910e-02,-3.746927394105040165506181892851600423455238342285e-02,1.000000000000000020816681711721685132943093776703e-02
5.000000000000000277555756156289135105907917022705e-02,2.490807206029614292996932078949612332507967948914e-02,-3.746195450892638584283744762615242507308721542358e-02,1.000000000000000020816681711721685132943093776703e-02
6.000000000000000471844785465691529680043458938599e-02,2.488928273092427118085012693882163148373365402222e-02,-3.745477989598275381233349889953387901186943054199e-02,1.000000000000000020816681711721685132943093776703e-02
7.000000000000000666133814775093924254179000854492e-02,2.487035877204063147316581705581484129652380943298e-02,-3.744775009665155668381331111049803439527750015259e-02,1.000000000000000020816681711721685132943093776703e-02
8.000000000000000166533453693773481063544750213623e-02,2.485130016116732926123589209055353421717882156372e-02,-3.744086510614592910872744369044085033237934112549e-02,1.000000000000000020816681711721685132943093776703e-02
8.999999999999999666933092612453037872910499572754e-02,2.483210687509234890213427604521712055429816246033e-02,-3.743412492046092887587604991495027206838130950928e-02,1.000000000000000020816681711721685132943093776703e-02
9.999999999999999167332731531132594682276248931885e-02,2.481277888986813812133291889949759934097528457642e-02,-3.742752953637433488420782623506966046988964080811e-02,1.000000000000000020816681711721685132943093776703e-02
1.099999999999999866773237044981215149164199829102e-01,2.479331618081018207000454367516795173287391662598e-02,-3.742107895144743123783115379410446621477603912354e-02,1.000000000000000020816681711721685132943093776703e-02
1.199999999999999816813200936849170830100774765015e-01,2.477371872249560860734796108317823382094502449036e-02,-3.741477316402581909660085557334241457283496856689e-02,1.000000000000000020816681711721685132943093776703e-02
1.299999999999999766853164828717126511037349700928e-01,2.475398648876179705236033612436585826799273490906e-02,-3.740861217324015219887201055826153606176376342773e-02,1.000000000000000020816681711721685132943093776703e-02
1.399999999999999855671006798729649744927883148193e-01,2.473411945270500775229116641185100888833403587341e-02,-3.740259597900690707872328744088008534163236618042e-02,1.000000000000000020816681711721685132943093776703e-02
1.499999999999999944488848768742172978818416595459e-01,2.471411758667901512054321244704624405130743980408e-02,-3.739672458202911858871075878596457187086343765259e-02,1.000000000000000020816681711721685132943093776703e-02
1.600000000000000033306690738754696212708950042725e-01,2.469398086229376496070209157096542185172438621521e-02,-3.739099798379708766704609956832427997142076492310e-02,1.000000000000000020816681711721685132943093776703e-02
1.700000000000000122124532708767219446599483489990e-01,2.467370925041403526001282386914681410416960716248e-02,-3.738541618658911686035040133901929948478937149048e-02,1.000000000000000020816681711721685132943093776703e-02
1.800000000000000210942374678779742680490016937256e-01,2.465330272115811433009113784464716445654630661011e-02,-3.737997919347217645746894731928477995097637176514e-02,1.000000000000000020816681711721685132943093776703e-02
1.900000000000000299760216648792265914380550384521e-01,2.463276124389649282542258390549250179901719093323e-02,-3.737468700830260531775550703059707302600145339966e-02,1.000000000000000020816681711721685132943093776703e-02
2.000000000000000388578058618804789148271083831787e-01,2.461208478725056963964945566658570896834135055542e-02,-3.736953963572676312709930357414123136550188064575e-02,1.000000000000000020816681711721685132943093776703e-02
2.100000000000000477395900588817312382161617279053e-01,2.459127331909136474075161515884246909990906715393e-02,-3.736453708118168265395198091027850750833749771118e-02,1.000000000000000020816681711721685132943093776703e-02
2.200000000000000566213742558829835616052150726318e-01,2.457032680653824935346207780639815609902143478394e-02,-3.735967935089570812756676332355709746479988098145e-02,1.000000000000000020816681711721685132943093776703e-02
2.300000000000000655031584528842358849942684173584e-01,2.454924521595769348891735717188566923141479492188e-02,-3.735496645188911973844980707326612900942564010620e-02,1.000000000000000020816681711721685132943093776703e-02
2.400000000000000743849426498854882083833217620850e-01,2.452802851296201694375476165532745653763413429260e-02,-3.735039839197473732212984032230451703071594238281e-02,1.000000000000000020816681711721685132943093776703e-02
2.500000000000000555111512312578270211815834045410e-01,2.450667666240815417699749900748429354280233383179e-02,-3.734597517975849628735218743713630829006433486938e-02,1.000000000000000020816681711721685132943093776703e-02
2.600000000000000643929354282590793445706367492676e-01,2.448518962839644694251539647211757255718111991882e-02,-3.734169682464005129984840891665953677147626876831e-02,1.000000000000000020816681711721685132943093776703e-02
2.700000000000000732747196252603316679596900939941e-01,2.446356737426942651314476506740902550518512725830e-02,-3.733756333681332445495471006324805784970521926880e-02,1.000000000000000020816681711721685132943093776703e-02
2.800000000000000821565038222615839913487434387207e-01,2.444180986261062712983083144990814616903662681580e-02,-3.733357472726705345023034965379338245838880538940e-02,1.000000000000000020816681711721685132943093776703e-02
2.900000000000000910382880192628363147377967834473e-01,2.441991705524339945077016977847961243242025375366e-02,-3.732973100778532588028824079628975596278905868530e-02,1.000000000000000020816681711721685132943093776703e-02
3.000000000000000999200722162640886381268501281738e-01,2.439788891322975175612874920716421911492943763733e-02,-3.732603219094809965383774397196248173713684082031e-02,1.000000000000000020816681711721685132943093776703e-02
3.100000000000001088018564132653409615159034729004e-01,2.437572539686918768331302942442562198266386985779e-02,-3.732247829013170259404574835571111179888248443604e-02,1.000000000000000020816681711721685132943093776703e-02
3.200000000000001176836406102665932849049568176270e-01,2.435342646569756477892276791408221470192074775696e-02,-3.731906931950932510000384922932425979524850845337e-02,1.000000000000000020816681711721685132943093776703e-02
3.300000000000001265654248072678456082940101623535e-01,2.433099207848596692849163503069576108828186988831e-02,-3.731580529405149199151381367300928104668855667114e-02,1.000000000000000020816681711721685132943093776703e-02
3.400000000000001354472090042690979316830635070801e-01,2.430842219323958025567478102857421617954969406128e-02,-3.731268622952652047608523844246519729495048522949e-02,1.000000000000000020816681711721685132943093776703e-02
3.500000000000001443289932012703502550721168518066e-01,2.428571676719659677701201871968805789947509765625e-02,-3.730971214250096423814540003149886615574359893799e-02,1.000000000000000020816681711721685132943093776703e-02
3.600000000000001532107773982716025784611701965332e-01,2.426287575682711805669100613158661872148513793945e-02,-3.730688305034004365046129692018439527601003646851e-02,1.000000000000000020816681711721685132943093776703e-02
3.700000000000001620925615952728549018502235412598e-01,2.423989911783207273909823697977117262780666351318e-02,-3.730419897120806904666778791579417884349822998047e-02,1.000000000000000020816681711721685132943093776703e-02
3.800000000000001709743457922741072252392768859863e-01,2.421678680514215142860479090813896618783473968506e-02,-3.730165992406882929932621095758804585784673690796e-02,1.000000000000000020816681711721685132943093776703e-02
3.900000000000001798561299892753595486283302307129e-01,2.419353877291675197769293959026981610804796218872e-02,-3.729926592868597345908909801437403075397014617920e-02,1.000000000000000020816681711721685132943093776703e-02
4.000000000000001887379141862766118720173835754395e-01,2.417015497454293865287056064516946207731962203979e-02,-3.729701700562339239386488998206914402544498443604e-02,1.000000000000000020816681711721685132943093776703e-02
4.100000000000001976196983832778641954064369201660e-01,2.414663536263440823947945546024129725992679595947e-02,-3.729491317624555879461922813788987696170806884766e-02,1.000000000000000020816681711721685132943093776703e-02
4.200000000000002065014825802791165187954902648926e-01,2.412297988903047002429147482871485408395528793335e-02,-3.729295446271788799785795731622783932834863662720e-02,1.000000000000000020816681711721685132943093776703e-02
4.300000000000002153832667772803688421845436096191e-01,2.409918850479505006423330826237361179664731025696e-02,-3.729114088800703635806499391946999821811914443970e-02,1.000000000000000020816681711721685132943093776703e-02
4.400000000000002242650509742816211655735969543457e-01,2.407526116021568504677041744344023754820227622986e-02,-3.728947247588123431460971346496080514043569564819e-02,1.000000000000000020816681711721685132943093776703e-02
4.500000000000002331468351712828734889626502990723e-01,2.405119780480255431420744116621790453791618347168e-02,-3.728794925091056394750310687413730192929506301880e-02,1.000000000000000020816681711721685132943093776703e-02
4.600000000000002420286193682841258123517036437988e-01,2.402699838728749801020079246427485486492514610291e-02,-3.728657123846724347204784066889260429888963699341e-02,1.000000000000000020816681711721685132943093776703e-02
4.700000000000002509104035652853781357407569885254e-01,2.400266285562307339018772722738503944128751754761e-02,-3.728533846472589785570050935348263010382652282715e-02,1.000000000000000020816681711721685132943093776703e-02
4.800000000000002597921877622866304591298103332520e-01,2.397819115698160072347455695762619143351912498474e-02,-3.728425095666379474046436826029093936085700988770e-02,1.000000000000000020816681711721685132943093776703e-02
4.900000000000002686739719592878827825188636779785e-01,2.395358323775424042034742910800559911876916885376e-02,-3.728330874206108730417597030282195191830396652222e-02,1.000000000000000020816681711721685132943093776703e-02
5.000000000000002220446049250313080847263336181641e-01,2.392883904355005975084225156024331226944923400879e-02,-3.728251184950102936621618709978065453469753265381e-02,1.000000000000000020816681711721685132943093776703e-02
5.100000000000002309263891220325604081153869628906e-01,2.390395851919514119687804054592561442404985427856e-02,-3.728186030837016967653951837746717501431703567505e-02,1.000000000000000020816681711721685132943093776703e-02
5.200000000000002398081733190338127315044403076172e-01,2.387894160873167692660246075320173986256122589111e-02,-3.728135414885856702138511309385648928582668304443e-02,1.000000000000000020816681711721685132943093776703e-02
5.300000000000002486899575160350650548934936523438e-01,2.385378825541708755486602910877991234883666038513e-02,-3.728099340195992206226094367593759670853614807129e-02,1.000000000000000020816681711721685132943093776703e-02
5.400000000000002575717417130363173782825469970703e-01,2.382849840172315478148412637438013916835188865662e-02,-3.728077809947176468607921151487971656024456024170e-02,1.000000000000000020816681711721685132943093776703e-02
5.500000000000002664535259100375697016716003417969e-01,2.380307198933515749894596069680119398981332778931e-02,-3.728070827399557890524661729614308569580316543579e-02,1.000000000000000020816681711721685132943093776703e-02
5.600000000000002753353101070388220250606536865234e-01,2.377750895915102871680524287967273266986012458801e-02,-3.728078395893693469664853523681813385337591171265e-02,1.000000000000000020816681711721685132943093776703e-02
5.700000000000002842170943040400743484497070312500e-01,2.375180925128051248607086165520740905776619911194e-02,-3.728100518850560596284537950850790366530418395996e-02,1.000000000000000020816681711721685132943093776703e-02
5.800000000000002930988785010413266718387603759766e-01,2.372597280504435898751403044570906786248087882996e-02,-3.728137199771563992101164330961182713508605957031e-02,1.000000000000000020816681711721685132943093776703e-02
5.900000000000003019806626980425789952278137207031e-01,2.369999955897349186439981849616742692887783050537e-02,-3.728188442238545424745055356652301270514726638794e-02,1.000000000000000020816681711721685132943093776703e-02
6.000000000000003108624468950438313186168670654297e-01,2.367388945080822759692296131106559187173843383789e-02,-3.728254249913790646653311000591202173382043838501e-02,1.000000000000000020816681711721685132943093776703e-02
6.100000000000003197442310920450836420059204101562e-01,2.364764241749748099885586327673081541433930397034e-02,-3.728334626540032170627370078364037908613681793213e-02,1.000000000000000020816681711721685132943093776703e-02
6.200000000000003286260152890463359653949737548828e-01,2.362125839519799153087831200537038967013359069824e-02,-3.728429575940453433169352592813083902001380920410e-02,1.000000000000000020816681711721685132943093776703e-02
6.300000000000003375077994860475882887840270996094e-01,2.359473731927356002224804853995010489597916603088e-02,-3.728539102018690182260840515482414048165082931519e-02,1.000000000000000020816681711721685132943093776703e-02
6.400000000000003463895836830488406121730804443359e-01,2.356807912429429927025914537352946354076266288757e-02,-3.728663208758830477362877786617900710552930831909e-02,1.000000000000000020816681711721685132943093776703e-02
6.500000000000003552713678800500929355621337890625e-01,2.354128374403589504804124032943946076557040214539e-02,-3.728801900225412607747799142998701427131891250610e-02,1.000000000000000020816681711721685132943093776703e-02
6.600000000000003641531520770513452589511871337891e-01,2.351435111147888445959353020953130908310413360596e-02,-3.728955180563422316941668555045907851308584213257e-02,1.000000000000000020816681711721685132943093776703e-02
6.700000000000003730349362740525975823402404785156e-01,2.348728115880793429481876444242516299709677696228e-02,-3.729123053998288639387936882485519163310527801514e-02,1.000000000000000020816681711721685132943093776703e-02
6.800000000000003819167204710538499057292938232422e-01,2.346007381741114020123895045344397658482193946838e-02,-3.729305524835875573774757185674388892948627471924e-02,1.000000000000000020816681711721685132943093776703e-02
6.900000000000003907985046680551022291183471679688e-01,2.343272901787934320294581880261830519884824752808e-02,-3.729502597462475144141080818371847271919250488281e-02,1.000000000000000020816681711721685132943093776703e-02
7.000000000000003996802888650563545525074005126953e-01,2.340524669000544275010433636907691834494471549988e-02,-3.729714276344798379314582348342810291796922683716e-02,1.000000000000000020816681711721685132943093776703e-02
7.100000000000004085620730620576068758964538574219e-01,2.337762676278373405458488321073673432692885398865e-02,-3.729940566029962129013242133623862173408269882202e-02,1.000000000000000020816681711721685132943093776703e-02
7.200000000000004174438572590588591992855072021484e-01,2.334986916440924889504238137760694371536374092102e-02,-3.730181471145477961615100070957851130515336990356e-02,1.000000000000000020816681711721685132943093776703e-02
7.300000000000004263256414560601115226745605468750e-01,2.332197382227712070812408740039245458319783210754e-02,-3.730436996399236204702276609168620780110359191895e-02,1.000000000000000020816681711721685132943093776703e-02
7.400000000000004352074256530613638460636138916016e-01,2.329394066298194967967738477909733774140477180481e-02,-3.730707146579490679494384153258579317480325698853e-02,1.000000000000000020816681711721685132943093776703e-02
7.500000000000004440892098500626161694526672363281e-01,2.326576961231718518319233623969921609386801719666e-02,-3.730991926554839965834986514892079867422580718994e-02,1.000000000000000020816681711721685132943093776703e-02
7.600000000000004529709940470638684928417205810547e-01,2.323746059527451168769118794443784281611442565918e-02,-3.731291341274208667178058362878800835460424423218e-02,1.000000000000000020816681711721685132943093776703e-02
7.700000000000004618527782440651208162307739257812e-01,2.320901353604326936008739323824556777253746986389e-02,-3.731605395766825900016883110765775199979543685913e-02,1.000000000000000020816681711721685132943093776703e-02
7.800000000000004707345624410663731396198272705078e-01,2.318042835800985732030987662710685981437563896179e-02,-3.731934095142202395534170022983744274824857711792e-02,1.000000000000000020816681711721685132943093776703e-02
7.900000000000004796163466380676254630088806152344e-01,2.315170498375716465200291338533133966848254203796e-02,-3.732277444590105519584000148824998177587985992432e-02,1.000000000000000020816681711721685132943093776703e-02
8.000000000000004884981308350688777863979339599609e-01,2.312284333506401876046076893089775694534182548523e-02,-3.732635449380534292673772256421216297894716262817e-02,1.000000000000000020816681711721685132943093776703e-02
8.100000000000004973799150320701301097869873046875e-01,2.309384333290463026111538624718377832323312759399e-02,-3.733008114863689552720416031661443412303924560547e-02,1.000000000000000020816681711721685132943093776703e-02
8.200000000000005062616992290713824331760406494141e-01,2.306470489744806215415273697999509749934077262878e-02,-3.733395446469946893364166840001416858285665512085e-02,1.000000000000000020816681711721685132943093776703e-02
8.300000000000005151434834260726347565650939941406e-01,2.303542794805770593802307644182292278856039047241e-02,-3.733797449709823357277826971767353825271129608154e-02,1.000000000000000020816681711721685132943093776703e-02
8.400000000000005240252676230738870799541473388672e-01,2.300601240329077160073900643055822001770138740540e-02,-3.734214130173944823365417278182576410472393035889e-02,1.000000000000000020816681711721685132943093776703e-02
8.500000000000005329070518200751394033432006835938e-01,2.297645818089778108062049000182014424353837966919e-02,-3.734645493533012700071438416671298909932374954224e-02,1.000000000000000020816681711721685132943093776703e-02
8.600000000000005417888360170763917267322540283203e-01,2.294676519782208601316852991658379323780536651611e-02,-3.735091545537765067575008970379712991416454315186e-02,1.000000000000000020816681711721685132943093776703e-02
8.700000000000005506706202140776440501213073730469e-01,2.291693337019939588627970294965052744373679161072e-02,-3.735552292018941289430955521311261691153049468994e-02,1.000000000000000020816681711721685132943093776703e-02
8.800000000000005595524044110788963735103607177734e-01,2.288696261335730966490764615173247875645756721497e-02,-3.736027738887239685316998816233535762876272201538e-02,1.000000000000000020816681711721685132943093776703e-02
8.900000000000005684341886080801486968994140625000e-01,2.285685284181486476295930287960800342261791229248e-02,-3.736517892133277979338501495476521085947751998901e-02,1.000000000000000020816681711721685132943093776703e-02
