time,u0,u1,tau
0.000000000000000000000000000000000000000000000000e+00,1.250000000000001110223024625156540423631668090820e-02,7.500000000000001110223024625156540423631668090820e-02,1.000000000000000020816681711721685132943093776703e-02
1.000000000000000020816681711721685132943093776703e-02,1.254748618630347443969608178804264753125607967377e-02,7.500224924400347714659176290297182276844978332520e-02,1.000000000000000020816681711721685132943093776703e-02
2.000000000000000041633363423443370265886187553406e-02,1.259525965236678486658394859887266648001968860626e-02,7.500478699038695684642163996613817289471626281738e-02,1.000000000000000020816681711721685132943093776703e-02
2.999999999999999888977697537484345957636833190918e-02,1.264332076281443444087937422182221780531108379364e-02,7.500761327198778027902648091185255907475948333740e-02,1.000000000000000020816681711721685132943093776703e-02
4.000000000000000083266726846886740531772375106812e-02,1.269166988415490991692902156273703440092504024506e-02,7.501072812277066736985631223433301784098148345947e-02,1.000000000000000020816681711721685132943093776703e-02
5.000000000000000277555756156289135105907917022705e-02,1.274030738478952422265688682045947643928229808807e-02,7.501413157782287066677184839136316440999507904053e-02,1.000000000000000020816681711721685132943093776703e-02
6.000000000000000471844785465691529680043458938599e-02,1.278923363502124099788659350451780483126640319824e-02,7.501782367334923484758490985768730752170085906982e-02,1.000000000000000020816681711721685132943093776703e-02
7.000000000000000666133814775093924254179000854492e-02,1.283844900706348005070545070793741615489125251770e-02,7.502180444666718683865980210612178780138492584229e-02,1.000000000000000020816681711721685132943093776703e-02
8.000000000000000166533453693773481063544750213623e-02,1.288795387504889852769984770475275581702589988708e-02,7.502607393620165654457565551638253964483737945557e-02,1.000000000000000020816681711721685132943093776703e-02
8.999999999999999666933092612453037872910499572754e-02,1.293774861503816688002022061709794797934591770172e-02,7.503063218147995594442534184054238721728324890137e-02,1.000000000000000020816681711721685132943093776703e-02
9.999999999999999167332731531132594682276248931885e-02,1.298783360502872401276430736061229254119098186493e-02,7.503547922312654716581192815283429808914661407471e-02,1.000000000000000020816681711721685132943093776703e-02
1.099999999999999866773237044981215149164199829102e-01,1.303820922496351161767869086816062917932868003845e-02,7.504061510285772729211828391271410509943962097168e-02,1.000000000000000020816681711721685132943093776703e-02
1.199999999999999816813200936849170830100774765015e-01,1.308887585673970330168991438313241815194487571716e-02,7.504603986347631316977668802792322821915149688721e-02,1.000000000000000020816681711721685132943093776703e-02
1.299999999999999766853164828717126511037349700928e-01,1.313983388421740942930693307744149933569133281708e-02,7.505175354886615968208474214407033286988735198975e-02,1.000000000000000020816681711721685132943093776703e-02
1.399999999999999855671006798729649744927883148193e-01,1.319108369322836982195923383187619037926197052002e-02,7.505775620398670577859689956312649883329868316650e-02,1.000000000000000020816681711721685132943093776703e-02
1.499999999999999944488848768742172978818416595459e-01,1.324262567158463257954714720199262956157326698303e-02,7.506404787486735397106230038843932561576366424561e-02,1.000000000000000020816681711721685132943093776703e-02
1.600000000000000033306690738754696212708950042725e-01,1.329446020908721728948087559274426894262433052063e-02,7.507062860860182207378699104083352722227573394775e-02,1.000000000000000020816681711721685132943093776703e-02
1.700000000000000122124532708767219446599483489990e-01,1.334658769753475741903780971142623457126319408417e-02,7.507749845334241167726929688797099515795707702637e-02,1.000000000000000020816681711721685132943093776703e-02
1.800000000000000210942374678779742680490016937256e-01,1.339900853073214097299636904381259228102862834930e-02,7.508465745829422111068396361588384024798870086670e-02,1.000000000000000020816681711721685132943093776703e-02
1.900000000000000299760216648792265914380550384521e-01,1.345172310449912339569422670138010289520025253296e-02,7.509210567370924738206383608485339209437370300293e-02,1.000000000000000020816681711721685132943093776703e-02
2.000000000000000388578058618804789148271083831787e-01,1.350473181667893006474567840768941096030175685883e-02,7.509984315088043260733030592746217735111713409424e-02,1.000000000000000020816681711721685132943093776703e-02
2.100000000000000477395900588817312382161617279053e-01,1.355803506714685358058858355434495024383068084717e-02,7.510786994213561329480910444544861093163490295410e-02,1.000000000000000020816681711721685132943093776703e-02
2.200000000000000566213742558829835616052150726318e-01,1.361163325781882156573221465123424422927200794220e-02,7.511618610083142799638267206319142132997512817383e-02,1.000000000000000020816681711721685132943093776703e-02
2.300000000000000655031584528842358849942684173584e-01,1.366552679265996099455815482315301778726279735565e-02,7.512479168134712781412787307999678887426853179932e-02,1.000000000000000020816681711721685132943093776703e-02
2.400000000000000743849426498854882083833217620850e-01,1.371971607769314691060991151516645913943648338318e-02,7.513368673907828976243905572118819691240787506104e-02,1.000000000000000020816681711721685132943093776703e-02
2.500000000000000555111512312578270211815834045410e-01,1.377420152100753726609472238351372652687132358551e-02,7.514287133043048849678768874582601711153984069824e-02,1.000000000000000020816681711721685132943093776703e-02
2.600000000000000643929354282590793445706367492676e-01,1.382898353276709214887407739524860517121851444244e-02,7.515234551281282926460391990985954180359840393066e-02,1.000000000000000020816681711721685132943093776703e-02
2.700000000000000732747196252603316679596900939941e-01,1.388406252521908260111338506703759776428341865540e-02,7.516210934463148085615813442927901633083820343018e-02,1.000000000000000020816681711721685132943093776703e-02
2.800000000000000821565038222615839913487434387207e-01,1.393943891270258209069687893588707083836197853088e-02,7.517216288528305589977662748424336314201354980469e-02,1.000000000000000020816681711721685132943093776703e-02
2.900000000000000910382880192628363147377967834473e-01,1.399511311165694930902514414583492907695472240448e-02,7.518250619514794952369385327983764000236988067627e-02,1.000000000000000020816681711721685132943093776703e-02
3.000000000000000999200722162640886381268501281738e-01,1.405108554063029882574831219699262874200940132141e-02,7.519313933558359475117782722008996643126010894775e-02,1.000000000000000020816681711721685132943093776703e-02
3.100000000000001088018564132653409615159034729004e-01,1.410735662028795266154101994970915256999433040619e-02,7.520406236891759299556525775187765248119831085205e-02,1.000000000000000020816681711721685132943093776703e-02
3.200000000000001176836406102665932849049568176270e-01,1.416392677342088665670694069831370143219828605652e-02,7.521527535844083067750887039437657222151756286621e-02,1.000000000000000020816681711721685132943093776703e-02
3.300000000000001265654248072678456082940101623535e-01,1.422079642495415602310160352317325305193662643433e-02,7.522677836840042930877103799502947367727756500244e-02,1.000000000000000020816681711721685132943093776703e-02
3.400000000000001354472090042690979316830635070801e-01,1.427796600195531742660826068913593189790844917297e-02,7.523857146399269557601741098551428876817226409912e-02,1.000000000000000020816681711721685132943093776703e-02
3.500000000000001443289932012703502550721168518066e-01,1.433543593364283198765551929909634054638445377350e-02,7.525065471135593264673246949314489029347896575928e-02,1.000000000000000020816681711721685132943093776703e-02
3.600000000000001532107773982716025784611701965332e-01,1.439320665139446307756454501713960780762135982513e-02,7.526302817756314045283261293661780655384063720703e-02,1.000000000000000020816681711721685132943093776703e-02
3.700000000000001620925615952728549018502235412598e-01,1.445127858875565156349107809319320949725806713104e-02,7.527569193061472985206705743621569126844406127930e-02,1.000000000000000020816681711721685132943093776703e-02
3.800000000000001709743457922741072252392768859863e-01,1.450965218144789105336744938767878920771181583405e-02,7.528864603943104250038942382161621935665607452393e-02,1.000000000000000020816681711721685132943093776703e-02
3.900000000000001798561299892753595486283302307129e-01,1.456832786737708058943940869767175172455608844757e-02,7.530189057384482909096590219633071683347225189209e-02,1.000000000000000020816681711721685132943093776703e-02
4.000000000000001887379141862766118720173835754395e-01,1.462730608664187560707947710625376203097403049469e-02,7.531542560459364432645656961540225893259048461914e-02,1.000000000000000020816681711721685132943093776703e-02
4.100000000000001976196983832778641954064369201660e-01,1.468658728154202154636553956379430019296705722809e-02,7.532925120331214474678205306190648116171360015869e-02,1.000000000000000020816681711721685132943093776703e-02
4.200000000000002065014825802791165187954902648926e-01,1.474617189658667185114815367796836653724312782288e-02,7.534336744252430329016334553671185858547687530518e-02,1.000000000000000020816681711721685132943093776703e-02
4.300000000000002153832667772803688421845436096191e-01,1.480606037850270943756481045738837565295398235321e-02,7.535777439563549895407135181812918744981288909912e-02,1.000000000000000020816681711721685132943093776703e-02
4.400000000000002242650509742816211655735969543457e-01,1.486625317624303867225510344951544539071619510651e-02,7.537247213692456482281301077819080092012882232666e-02,1.000000000000000020816681711721685132943093776703e-02
4.500000000000002331468351712828734889626502990723e-01,1.492675074099488082002284983218487468548119068146e-02,7.538746074153571119502714736881898716092109680176e-02,1.000000000000000020816681711721685132943093776703e-02
4.600000000000002420286193682841258123517036437988e-01,1.498755352618804867481649978344648843631148338318e-02,7.540274028547037932224128553571063093841075897217e-02,1.000000000000000020816681711721685132943093776703e-02
4.700000000000002509104035652853781357407569885254e-01,1.504866198750322119070954585140498238615691661835e-02,7.541831084557895636955038298765430226922035217285e-02,1.000000000000000020816681711721685132943093776703e-02
4.800000000000002597921877622866304591298103332520e-01,1.511007658288019209202879267195385182276368141174e-02,7.543417249955244874293214252247707918286323547363e-02,1.000000000000000020816681711721685132943093776703e-02
4.900000000000002686739719592878827825188636779785e-01,1.517179777252612195292957864012350910343229770660e-02,7.545032532591404439425986083733732812106609344482e-02,1.000000000000000020816681711721685132943093776703e-02
5.000000000000002220446049250313080847263336181641e-01,1.523382601892377292973623781335845706053078174591e-02,7.546676940401056410401281482336344197392463684082e-02,1.000000000000000020816681711721685132943093776703e-02
5.100000000000002309263891220325604081153869628906e-01,1.529616178683973481966518193075899034738540649414e-02,7.548350481400384337504760878800880163908004760742e-02,1.000000000000000020816681711721685132943093776703e-02
5.200000000000002398081733190338127315044403076172e-01,1.535880554333263897648365059467323590070009231567e-02,7.550053163686196167070363571838242933154106140137e-02,1.000000000000000020816681711721685132943093776703e-02
5.300000000000002486899575160350650548934936523438e-01,1.542175775776136528727455754506081575527787208557e-02,7.551784995435044389733292291566613130271434783936e-02,1.000000000000000020816681711721685132943093776703e-02
5.400000000000002575717417130363173782825469970703e-01,1.548501890179323700613700509620684897527098655701e-02,7.553545984902333698673970729942084290087223052979e-02,1.000000000000000020816681711721685132943093776703e-02
5.500000000000002664535259100375697016716003417969e-01,1.554858944941220171009899075897919829003512859344e-02,7.555336140421417545631754819623893126845359802246e-02,1.000000000000000020816681711721685132943093776703e-02
5.600000000000002753353101070388220250606536865234e-01,1.561246987692701052030663788627862231805920600891e-02,7.557155470402683594688397761274245567619800567627e-02,1.000000000000000020816681711721685132943093776703e-02
5.700000000000002842170943040400743484497070312500e-01,1.567666066297938171070214252722507808357477188110e-02,7.559003983332632237157611143629765138030052185059e-02,1.000000000000000020816681711721685132943093776703e-02
5.800000000000002930988785010413266718387603759766e-01,1.574116228855215737780781637411564588546752929688e-02,7.560881687772945392023160593453212641179561614990e-02,1.000000000000000020816681711721685132943093776703e-02
5.900000000000003019806626980425789952278137207031e-01,1.580597523697744102855189396450441563501954078674e-02,7.562788592359541428589153611028450541198253631592e-02,1.000000000000000020816681711721685132943093776703e-02
6.000000000000003108624468950438313186168670654297e-01,1.587109999394474557643519574412493966519832611084e-02,7.564724705801621762457642716981354169547557830811e-02,1.000000000000000020816681711721685132943093776703e-02
6.100000000000003197442310920450836420059204101562e-01,1.593653704750911184739869952409208053722977638245e-02,7.566690036880706349275982347535318695008754730225e-02,1.000000000000000020816681711721685132943093776703e-02
6.200000000000003286260152890463359653949737548828e-01,1.600228688809922361624415998448967002332210540771e-02,7.568684594449660851811501061092712916433811187744e-02,1.000000000000000020816681711721685132943093776703e-02
6.300000000000003375077994860475882887840270996094e-01,1.606835000852552264305472817795816808938980102539e-02,7.570708387431712704795927493250928819179534912109e-02,1.000000000000000020816681711721685132943093776703e-02
6.400000000000003463895836830488406121730804443359e-01,1.613472690398829595403995540436881128698587417603e-02,7.572761424819451914203227715916000306606292724609e-02,1.000000000000000020816681711721685132943093776703e-02
6.500000000000003552713678800500929355621337890625e-01,1.620141807208577700016860489995451644062995910645e-02,7.574843715673829080969881033524870872497558593750e-02,1.000000000000000020816681711721685132943093776703e-02
6.600000000000003641531520770513452589511871337891e-01,1.626842401282221559077889594391308492049574851990e-02,7.576955269123135383591005620473879389464855194092e-02,1.000000000000000020816681711721685132943093776703e-02
6.700000000000003730349362740525975823402404785156e-01,1.633574522861595476608265187223878456279635429382e-02,7.579096094361978397380141814210219308733940124512e-02,1.000000000000000020816681711721685132943093776703e-02
6.800000000000003819167204710538499057292938232422e-01,1.640338222430747991409383246264042099937796592712e-02,7.581266200650238484826104468083940446376800537109e-02,1.000000000000000020816681711721685132943093776703e-02
6.900000000000003907985046680551022291183471679688e-01,1.647133550716748523479182608753035310655832290649e-02,7.583465597312022410392273741308599710464477539062e-02,1.000000000000000020816681711721685132943093776703e-02
7.000000000000003996802888650563545525074005126953e-01,1.653960558690491244870912623809999786317348480225e-02,7.585694293734603077528078074465156532824039459229e-02,1.000000000000000020816681711721685132943093776703e-02
7.100000000000004085620730620576068758964538574219e-01,1.660819297567497909717815218755276873707771301270e-02,7.587952299367345387892669350549113005399703979492e-02,1.000000000000000020816681711721685132943093776703e-02
7.200000000000004174438572590588591992855072021484e-01,1.667709818808721378147197356156539171934127807617e-02,7.590239623720623773905913367343600839376449584961e-02,1.000000000000000020816681711721685132943093776703e-02
7.300000000000004263256414560601115226745605468750e-01,1.674632174121346364636941927983571076765656471252e-02,7.592556276364727241290353276781388558447360992432e-02,1.000000000000000020816681711721685132943093776703e-02
7.400000000000004352074256530613638460636138916016e-01,1.681586415459590880261409040485887089744210243225e-02,7.594902266928756084940488335632835514843463897705e-02,1.000000000000000020816681711721685132943093776703e-02
7.500000000000004440892098500626161694526672363281e-01,1.688572595025505593269166126901836832985281944275e-02,7.597277605099500563667902497400064021348953247070e-02,1.000000000000000020816681711721685132943093776703e-02
7.600000000000004529709940470638684928417205810547e-01,1.695590765269773189660718060167710063979029655457e-02,7.599682300620314023831269878428429365158081054688e-02,1.000000000000000020816681711721685132943093776703e-02
7.700000000000004618527782440651208162307739257812e-01,1.702640978892506345987456484181166160851716995239e-02,7.602116363289970757399771628115558996796607971191e-02,1.000000000000000020816681711721685132943093776703e-02
7.800000000000004707345624410663731396198272705078e-01,1.709723288844045702150609145064663607627153396606e-02,7.604579802961514145565047329000663012266159057617e-02,1.000000000000000020816681711721685132943093776703e-02
7.900000000000004796163466380676254630088806152344e-01,1.716837748325755405587322854898957302793860435486e-02,7.607072629541090924565338582397089339792728424072e-02,1.000000000000000020816681711721685132943093776703e-02
8.000000000000004884981308350688777863979339599609e-01,1.723984410790819349346136846179433632642030715942e-02,7.609594852986778512615728686796501278877258300781e-02,1.000000000000000020816681711721685132943093776703e-02
8.100000000000004973799150320701301097869873046875e-01,1.731163329945035328494284954103932250291109085083e-02,7.612146483307391520156670594587922096252441406250e-02,1.000000000000000020816681711721685132943093776703e-02
8.200000000000005062616992290713824331760406494141e-01,1.738374559747609890414388189583405619487166404724e-02,7.614727530561285484544953305885428562760353088379e-02,1.000000000000000020816681711721685132943093776703e-02
8.300000000000005151434834260726347565650939941406e-01,1.745618154411950062598890553999808616936206817627e-02,7.617338004855139788062956540670711547136306762695e-02,1.000000000000000020816681711721685132943093776703e-02
8.400000000000005240252676230738870799541473388672e-01,1.752894168406456815167970830771082546561956405640e-02,7.619977916342736412591563066598610021173954010010e-02,1.000000000000000020816681711721685132943093776703e-02
8.500000000000005329070518200751394033432006835938e-01,1.760202656455315747829892814024788094684481620789e-02,7.622647275223719265380140086563187651336193084717e-02,1.000000000000000020816681711721685132943093776703e-02
8.600000000000005417888360170763917267322540283203e-01,1.767543673539287776841355537271738285198807716370e-02,7.625346091742346565922616719035431742668151855469e-02,1.000000000000000020816681711721685132943093776703e-02
8.700000000000005506706202140776440501213073730469e-01,1.774917274896498781133757915995374787598848342896e-02,7.628074376186227967266972882498521357774734497070e-02,1.000000000000000020816681711721685132943093776703e-02
8.800000000000005595524044110788963735103607177734e-01,1.782323516023228207605377804156887577846646308899e-02,7.630832138885046411758139583980664610862731933594e-02,1.000000000000000020816681711721685132943093776703e-02
8.900000000000005684341886080801486968994140625000e-01,1.789762452674698023358246246061753481626510620117e-02,7.633619390209273047886995300359558314085006713867e-02,1.000000000000000020816681711721685132943093776703e-02
