time,u0,u1,tau
0.000000000000000000000000000000000000000000000000e+00,5.000000000000001665334536937734810635447502136230e-02,-1.249999999999999722444243843710864894092082977295e-02,1.000000000000000020816681711721685132943093776703e-02
1.000000000000000020816681711721685132943093776703e-02,4.999364853762146287952106149532482959330081939697e-02,-1.248533557767691690165712259386054938659071922302e-02,1.000000000000000020816681711721685132943093776703e-02
2.000000000000000041633363423443370265886187553406e-02,4.998725820769200911541929599479772150516510009766e-02,-1.247071778493421580213951216364876017905771732330e-02,1.000000000000000020816681711721685132943093776703e-02
2.999999999999999888977697537484345957636833190918e-02,4.998082909651771488235283413814613595604896545410e-02,-1.245614651946231297985345776169197051785886287689e-02,1.000000000000000020816681711721685132943093776703e-02
4.000000000000000083266726846886740531772375106812e-02,4.997436129022359702078759369214822072535753250122e-02,-1.244162167917205880085518288069579284638166427612e-02,1.000000000000000020816681711721685132943093776703e-02
5.000000000000000277555756156289135105907917022705e-02,4.996785487475371989596339972194982692599296569824e-02,-1.242714316219465167656643700411223107948899269104e-02,1.000000000000000020816681711721685132943093776703e-02
6.000000000000000471844785465691529680043458938599e-02,4.996130993587125784793911975611990783363580703735e-02,-1.241271086688154265398331688174948794767260551453e-02,1.000000000000000020816681711721685132943093776703e-02
7.000000000000000666133814775093924254179000854492e-02,4.995472655915857151942560676616267301142215728760e-02,-1.239832469180434347533203975899596116505563259125e-02,1.000000000000000020816681711721685132943093776703e-02
8.000000000000000166533453693773481063544750213623e-02,4.994810483001731887808816168217163067311048507690e-02,-1.238398453575472249466038476839457871392369270325e-02,1.000000000000000020816681711721685132943093776703e-02
8.999999999999999666933092612453037872910499572754e-02,4.994144483366851766659166855788498651236295700073e-02,-1.236969029774430406387608627483132295310497283936e-02,1.000000000000000020816681711721685132943093776703e-02
9.999999999999999167332731531132594682276248931885e-02,4.993474665515265642490305708633968606591224670410e-02,-1.235544187700455057155046745265281060710549354553e-02,1.000000000000000020816681711721685132943093776703e-02
1.099999999999999866773237044981215149164199829102e-01,4.992801037932978469591205339384032413363456726074e-02,-1.234123917298664968589250179320515599101781845093e-02,1.000000000000000020816681711721685132943093776703e-02
1.199999999999999816813200936849170830100774765015e-01,4.992123609087962404773364255561318714171648025513e-02,-1.232708208536139118938201875153026776388287544250e-02,1.000000000000000020816681711721685132943093776703e-02
1.299999999999999766853164828717126511037349700928e-01,4.991442387430168603490443501868867315351963043213e-02,-1.231297051401904034395595743944795685820281505585e-02,1.000000000000000020816681711721685132943093776703e-02
1.399999999999999855671006798729649744927883148193e-01,4.990757381391536240400341739587020128965377807617e-02,-1.229890435906920605202419238821676117368042469025e-02,1.000000000000000020816681711721685132943093776703e-02
1.499999999999999944488848768742172978818416595459e-01,4.990068599386007081042393451753014232963323593140e-02,-1.228488352084070207859145540396639262326061725616e-02,1.000000000000000020816681711721685132943093776703e-02
1.600000000000000033306690738754696212708950042725e-01,4.989376049809535890178224804003548342734575271606e-02,-1.227090789988140827337925742313018417917191982269e-02,1.000000000000000020816681711721685132943093776703e-02
1.700000000000000122124532708767219446599483489990e-01,4.988679741040105003468951849754375871270895004272e-02,-1.225697739695811964988347853022787603549659252167e-02,1.000000000000000020816681711721685132943093776703e-02
1.800000000000000210942374678779742680490016937256e-01,4.987979681437735429705426781765709165483713150024e-02,-1.224309191305639372970848199884130735881626605988e-02,1.000000000000000020816681711721685132943093776703e-02
1.900000000000000299760216648792265914380550384521e-01,4.987275879344502116374826528044650331139564514160e-02,-1.222925134938039962162470430939720245078206062317e-02,1.000000000000000020816681711721685132943093776703e-02
2.000000000000000388578058618804789148271083831787e-01,4.986568343084548521337850957024784293025732040405e-02,-1.221545560735274801866800942207191837951540946960e-02,1.000000000000000020816681711721685132943093776703e-02
2.100000000000000477395900588817312382161617279053e-01,4.985857080964099796727140301300096325576305389404e-02,-1.220170458861432986885642293373166467063128948212e-02,1.000000000000000020816681711721685132943093776703e-02
2.200000000000000566213742558829835616052150726318e-01,4.985142101271479442292644534973078407347202301025e-02,-1.218799819502414116811905842041596770286560058594e-02,1.000000000000000020816681711721685132943093776703e-02
2.300000000000000655031584528842358849942684173584e-01,4.984423412277123183189431188111484516412019729614e-02,-1.217433632865910948794851975662822951562702655792e-02,1.000000000000000020816681711721685132943093776703e-02
2.400000000000000743849426498854882083833217620850e-01,4.983701022233597011101835505542112514376640319824e-02,-1.216071889181391009471244757378372014500200748444e-02,1.000000000000000020816681711721685132943093776703e-02
2.500000000000000555111512312578270211815834045410e-01,4.982974939375611062031268261307559441775083541870e-02,-1.214714578700078033424158974185047554783523082733e-02,1.000000000000000020816681711721685132943093776703e-02
2.600000000000000643929354282590793445706367492676e-01,4.982245171920039045199146698905678931623697280884e-02,-1.213361691694932881224744392056891229003667831421e-02,1.000000000000000020816681711721685132943093776703e-02
2.700000000000000732747196252603316679596900939941e-01,4.981511728065933508613483127192012034356594085693e-02,-1.212013218460634110529294815705725341103971004486e-02,1.000000000000000020816681711721685132943093776703e-02
2.800000000000000821565038222615839913487434387207e-01,4.980774615994545267971815860619244631379842758179e-02,-1.210669149313557853286926757618857664056122303009e-02,1.000000000000000020816681711721685132943093776703e-02
2.900000000000000910382880192628363147377967834473e-01,4.980033843869340060006578596585313789546489715576e-02,-1.209329474591757172530215314054657937958836555481e-02,1.000000000000000020816681711721685132943093776703e-02
3.000000000000000999200722162640886381268501281738e-01,4.979289419836018665277421746395702939480543136597e-02,-1.207994184654941245693482443357424926944077014923e-02,1.000000000000000020816681711721685132943093776703e-02
3.100000000000001088018564132653409615159034729004e-01,4.978541352022534255405972203334385994821786880493e-02,-1.206663269884454200986390048910834593698382377625e-02,1.000000000000000020816681711721685132943093776703e-02
3.200000000000001176836406102665932849049568176270e-01,4.977789648539112515868154673626122530549764633179e-02,-1.205336720683252739461099878326422185637056827545e-02,1.000000000000000020816681711721685132943093776703e-02
3.300000000000001265654248072678456082940101623535e-01,4.977034317478272462675903398121590726077556610107e-02,-1.204014527475884450968823813354902085848152637482e-02,1.000000000000000020816681711721685132943093776703e-02
3.400000000000001354472090042690979316830635070801e-01,4.976275366914845177390702701814007014036178588867e-02,-1.202696680708464395392898182990393252111971378326e-02,1.000000000000000020816681711721685132943093776703e-02
3.500000000000001443289932012703502550721168518066e-01,4.975512804905995317694689106247096788138151168823e-02,-1.201383170848652551243596064978191861882805824280e-02,1.000000000000000020816681711721685132943093776703e-02
3.600000000000001532107773982716025784611701965332e-01,4.974746639491242627961753441923065111041069030762e-02,-1.200073988385629529529463610515449545346200466156e-02,1.000000000000000020816681711721685132943093776703e-02
3.700000000000001620925615952728549018502235412598e-01,4.973976878692482062049862179264891892671585083008e-02,-1.198769123830072808045699161993979942053556442261e-02,1.000000000000000020816681711721685132943093776703e-02
3.800000000000001709743457922741072252392768859863e-01,4.973203530514006681650940322469978127628564834595e-02,-1.197468567714132445245489577700936933979392051697e-02,1.000000000000000020816681711721685132943093776703e-02
3.900000000000001798561299892753595486283302307129e-01,4.972426602942529860751363912640954367816448211670e-02,-1.196172310591405753277260970435236231423914432526e-02,1.000000000000000020816681711721685132943093776703e-02
4.000000000000001887379141862766118720173835754395e-01,4.971646103947208183981842921639326959848403930664e-02,-1.194880343036912144494277043804686400108039379120e-02,1.000000000000000020816681711721685132943093776703e-02
4.100000000000001976196983832778641954064369201660e-01,4.970862041479663651077913755216286517679691314697e-02,-1.193592655647066763657804244758153799921274185181e-02,1.000000000000000020816681711721685132943093776703e-02
4.200000000000002065014825802791165187954902648926e-01,4.970074423474008656897993319034867454320192337036e-02,-1.192309239039655160974362502201984170824289321899e-02,1.000000000000000020816681711721685132943093776703e-02
4.300000000000002153832667772803688421845436096191e-01,4.969283257846868195883871521800756454467773437500e-02,-1.191030083853805883464804793447910924442112445831e-02,1.000000000000000020816681711721685132943093776703e-02
4.400000000000002242650509742816211655735969543457e-01,4.968488552497404842078765341284452006220817565918e-02,-1.189755180749963760222787101383801200427114963531e-02,1.000000000000000020816681711721685132943093776703e-02
4.500000000000002331468351712828734889626502990723e-01,4.967690315307344423034763281066261697560548782349e-02,-1.188484520409862146839152785560145275667309761047e-02,1.000000000000000020816681711721685132943093776703e-02
4.600000000000002420286193682841258123517036437988e-01,4.966888554140998918162708264389948453754186630249e-02,-1.187218093536495343298664550957255414687097072601e-02,1.000000000000000020816681711721685132943093776703e-02
4.700000000000002509104035652853781357407569885254e-01,4.966083276845294214307813263076241128146648406982e-02,-1.185955890854089797570303232987498631700873374939e-02,1.000000000000000020816681711721685132943093776703e-02
4.800000000000002597921877622866304591298103332520e-01,4.965274491249794391878324972822156269103288650513e-02,-1.184697903108075829614609375539657776243984699249e-02,1.000000000000000020816681711721685132943093776703e-02
4.900000000000002686739719592878827825188636779785e-01,4.964462205166728786531749051391670946031808853149e-02,-1.183444121065058141084591625258326530456542968750e-02,1.000000000000000020816681711721685132943093776703e-02
5.000000000000002220446049250313080847263336181641e-01,4.963646426391017663082294575360720045864582061768e-02,-1.182194535512786498498982723504013847559690475464e-02,1.000000000000000020816681711721685132943093776703e-02
5.100000000000002309263891220325604081153869628906e-01,4.962827162700299277187099278307869099080562591553e-02,-1.180949137260125549053757509909701184369623661041e-02,1.000000000000000020816681711721685132943093776703e-02
5.200000000000002398081733190338127315044403076172e-01,4.962004421854958324811235570450662635266780853271e-02,-1.179707917137024809905998523618109175004065036774e-02,1.000000000000000020816681711721685132943093776703e-02
5.300000000000002486899575160350650548934936523438e-01,4.961178211598152310024545386113459244370460510254e-02,-1.178470865994487616623676018434707657434046268463e-02,1.000000000000000020816681711721685132943093776703e-02
5.400000000000002575717417130363173782825469970703e-01,4.960348539655840688356036594086617697030305862427e-02,-1.177237974704540071635427977980725700035691261292e-02,1.000000000000000020816681711721685132943093776703e-02
5.500000000000002664535259100375697016716003417969e-01,4.959515413736811928480108235817169770598411560059e-02,-1.176009234160199472263297337804033304564654827118e-02,1.000000000000000020816681711721685132943093776703e-02
5.600000000000002753353101070388220250606536865234e-01,4.958678841532712655570946935768006369471549987793e-02,-1.174784635275442565283121609809313667938113212585e-02,1.000000000000000020816681711721685132943093776703e-02
5.700000000000002842170943040400743484497070312500e-01,4.957838830718078876325094483945576939731836318970e-02,-1.173564168985173107595532115965397679246962070465e-02,1.000000000000000020816681711721685132943093776703e-02
5.800000000000002930988785010413266718387603759766e-01,4.956995388950362346758282683367724530398845672607e-02,-1.172347826245188906479910428970470093190670013428e-02,1.000000000000000020816681711721685132943093776703e-02
5.900000000000003019806626980425789952278137207031e-01,4.956148523869961797228000932591385208070278167725e-02,-1.171135598032149380265387605959404027089476585388e-02,1.000000000000000020816681711721685132943093776703e-02
6.000000000000003108624468950438313186168670654297e-01,4.955298243100254157456063808240287471562623977661e-02,-1.169927475343541731223062640765419928357005119324e-02,1.000000000000000020816681711721685132943093776703e-02
6.100000000000003197442310920450836420059204101562e-01,4.954444554247623005993617084641300607472658157349e-02,-1.168723449197646771513525720820325659587979316711e-02,1.000000000000000020816681711721685132943093776703e-02
6.200000000000003286260152890463359653949737548828e-01,4.953587464901491183022486097797809634357690811157e-02,-1.167523510633505616496119472458303789608180522919e-02,1.000000000000000020816681711721685132943093776703e-02
6.300000000000003375077994860475882887840270996094e-01,4.952726982634350627598962546471739187836647033691e-02,-1.166327650710884296370029034051185590215027332306e-02,1.000000000000000020816681711721685132943093776703e-02
6.400000000000003463895836830488406121730804443359e-01,4.951863115001795684344543246879766229540109634399e-02,-1.165135860510239061704762519866562797687947750092e-02,1.000000000000000020816681711721685132943093776703e-02
6.500000000000003552713678800500929355621337890625e-01,4.950995869542552940689716933775343932211399078369e-02,-1.163948131132681342025936288564480491913855075836e-02,1.000000000000000020816681711721685132943093776703e-02
6.600000000000003641531520770513452589511871337891e-01,4.950125253778515921343483796590589918196201324463e-02,-1.162764453699941837039322223290582769550383090973e-02,1.000000000000000020816681711721685132943093776703e-02
6.700000000000003730349362740525975823402404785156e-01,4.949251275214774925537142280518310144543647766113e-02,-1.161584819354334434382547414088548975996673107147e-02,1.000000000000000020816681711721685132943093776703e-02
6.800000000000003819167204710538499057292938232422e-01,4.948373941339652415383199013376724906265735626221e-02,-1.160409219258719953904446242631820496171712875366e-02,1.000000000000000020816681711721685132943093776703e-02
6.900000000000003907985046680551022291183471679688e-01,4.947493259624734240897936388137168250977993011475e-02,-1.159237644596469371527369673913199221715331077576e-02,1.000000000000000020816681711721685132943093776703e-02
7.000000000000003996802888650563545525074005126953e-01,4.946609237524905028360322489788813982158899307251e-02,-1.158070086571426869637146950253736576996743679047e-02,1.000000000000000020816681711721685132943093776703e-02
7.100000000000004085620730620576068758964538574219e-01,4.945721882478380793113359459312050603330135345459e-02,-1.156906536407872020111309296908075339160859584808e-02,1.000000000000000020816681711721685132943093776703e-02
7.200000000000004174438572590588591992855072021484e-01,4.944831201906744327922993420543207321316003799438e-02,-1.155746985350482314292008823031210340559482574463e-02,1.000000000000000020816681711721685132943093776703e-02
7.300000000000004263256414560601115226745605468750e-01,4.943937203214978509668853234870766755193471908569e-02,-1.154591424664294825597199434241701965220272541046e-02,1.000000000000000020816681711721685132943093776703e-02
7.400000000000004352074256530613638460636138916016e-01,4.943039893791502381592550818822928704321384429932e-02,-1.153439845634667872131817745184889645315706729889e-02,1.000000000000000020816681711721685132943093776703e-02
7.500000000000004440892098500626161694526672363281e-01,4.942139281008205153877810289486660622060298919678e-02,-1.152292239567242158881921199053977034054696559906e-02,1.000000000000000020816681711721685132943093776703e-02
7.600000000000004529709940470638684928417205810547e-01,4.941235372220482979788158672818099148571491241455e-02,-1.151148597787901572964130991749698296189308166504e-02,1.000000000000000020816681711721685132943093776703e-02
7.700000000000004618527782440651208162307739257812e-01,4.940328174767273650136445439784438349306583404541e-02,-1.150008911642733284985684605317146633751690387726e-02,1.000000000000000020816681711721685132943093776703e-02
7.800000000000004707345624410663731396198272705078e-01,4.939417695971093369422533214674331247806549072266e-02,-1.148873172497988717766226329786150017753243446350e-02,1.000000000000000020816681711721685132943093776703e-02
7.900000000000004796163466380676254630088806152344e-01,4.938503943138074225860378874131129123270511627197e-02,-1.147741371740042606863774210523843066766858100891e-02,1.000000000000000020816681711721685132943093776703e-02
8.000000000000004884981308350688777863979339599609e-01,4.937586923557998191958162692571931984275579452515e-02,-1.146613500775352928462424983990786131471395492554e-02,1.000000000000000020816681711721685132943093776703e-02
8.100000000000004973799150320701301097869873046875e-01,4.936666644504338063992321394835016690194606781006e-02,-1.145489551030419959898321025093537173233926296234e-02,1.000000000000000020816681711721685132943093776703e-02
8.200000000000005062616992290713824331760406494141e-01,4.935743113234291462587677301598887424916028976440e-02,-1.144369513951744819768574501495095319114625453949e-02,1.000000000000000020816681711721685132943093776703e-02
8.300000000000005151434834260726347565650939941406e-01,4.934816336988819690523300209861190523952245712280e-02,-1.143253381005788354984886723286763299256563186646e-02,1.000000000000000020816681711721685132943093776703e-02
8.400000000000005240252676230738870799541473388672e-01,4.933886322992686590538369273417629301548004150391e-02,-1.142141143678929160465429504256462678313255310059e-02,1.000000000000000020816681711721685132943093776703e-02
8.500000000000005329070518200751394033432006835938e-01,4.932953078454496015359254101895203348249197006226e-02,-1.141032793477421598826726523157049086876213550568e-02,1.000000000000000020816681711721685132943093776703e-02
8.600000000000005417888360170763917267322540283203e-01,4.932016610566730685505376641231123358011245727539e-02,-1.139928321927352779241449098890370805747807025909e-02,1.000000000000000020816681711721685132943093776703e-02
8.700000000000005506706202140776440501213073730469e-01,4.931076926505791047095073054151725955307483673096e-02,-1.138827720574600577130297551775583997368812561035e-02,1.000000000000000020816681711721685132943093776703e-02
8.800000000000005595524044110788963735103607177734e-01,4.930134033432034823540845991374226287007331848145e-02,-1.137730980984789919130406588010373525321483612061e-02,1.000000000000000020816681711721685132943093776703e-02
8.900000000000005684341886080801486968994140625000e-01,4.929187938489815179465836081362795084714889526367e-02,-1.136638094743249761953141074855011538602411746979e-02,1.000000000000000020816681711721685132943093776703e-02
