time,u0,u1,tau
0.000000000000000000000000000000000000000000000000e+00,5.000000000000001665334536937734810635447502136230e-02,0.000000000000000000000000000000000000000000000000e+00,1.000000000000000020816681711721685132943093776703e-02
1.000000000000000020816681711721685132943093776703e-02,4.999999993437501816240242646927072200924158096313e-02,1.500001861640694103268260650718701754158246330917e-05,1.000000000000000020816681711721685132943093776703e-02
2.000000000000000041633363423443370265886187553406e-02,5.000000745313457062302120448293862864375114440918e-02,3.000014885912444991271537386712253692166996188462e-05,1.000000000000000020816681711721685132943093776703e-02
2.999999999999999888977697537484345957636833190918e-02,5.000002266883638024630442941997898742556571960449e-02,4.500050308689596358958928679072641898528672754765e-05,1.000000000000000020816681711721685132943093776703e-02
4.000000000000000083266726846886740531772375106812e-02,5.000004569409663424117695740278577432036399841309e-02,6.000119367021386230240734271923486176092410460114e-05,1.000000000000000020816681711721685132943093776703e-02
5.000000000000000277555756156289135105907917022705e-02,5.000007664159031306461145049979677423834800720215e-02,7.500233299157459251546575806912642292445525527000e-05,1.000000000000000020816681711721685132943093776703e-02
6.000000000000000471844785465691529680043458938599e-02,5.000011562405149573296014864354219753295183181763e-02,9.000403344573377291317622939104126089659985154867e-05,1.000000000000000020816681711721685132943093776703e-02
7.000000000000000666133814775093924254179000854492e-02,5.000016275427367901107444936315005179494619369507e-02,1.050064074399613308881742956835125823999987915158e-04,1.000000000000000020816681711721685132943093776703e-02
8.000000000000000166533453693773481063544750213623e-02,5.000021814511008966253058360962313599884510040283e-02,1.200095673942965136685515070702479079045588150620e-04,1.000000000000000020816681711721685132943093776703e-02
8.999999999999999666933092612453037872910499572754e-02,5.000028190947399669985529158111603464931249618530e-02,1.350136257418028452349789692021886367001570761204e-04,1.000000000000000020816681711721685132943093776703e-02
9.999999999999999167332731531132594682276248931885e-02,5.000035416033903751253930636266886722296476364136e-02,1.500186949288229544888229050059180735843256115913e-04,1.000000000000000020816681711721685132943093776703e-02
1.099999999999999866773237044981215149164199829102e-01,5.000043501073950236168741412257077172398567199707e-02,1.650248874152331459222442511247663787798956036568e-04,1.000000000000000020816681711721685132943093776703e-02
1.199999999999999816813200936849170830100774765015e-01,5.000052457377068132471364947377878706902265548706e-02,1.800323156746979431832439422223046676663216203451e-04,1.000000000000000020816681711721685132943093776703e-02
1.299999999999999766853164828717126511037349700928e-01,5.000062296258916266777916348473809193819761276245e-02,1.950410921949242125123663571528709326230455189943e-04,1.000000000000000020816681711721685132943093776703e-02
1.399999999999999855671006798729649744927883148193e-01,5.000073029041313815712399559743062127381563186646e-02,2.100513294779150557864411119624037382891401648521e-04,1.000000000000000020816681711721685132943093776703e-02
1.499999999999999944488848768742172978818416595459e-01,5.000084667052274306486836508156557101756334304810e-02,2.250631400402234596168360436507782651460729539394e-04,1.000000000000000020816681711721685132943093776703e-02
1.600000000000000033306690738754696212708950042725e-01,5.000097221626034066366273123094288166612386703491e-02,2.400766364132055378718955118699796003056690096855e-04,1.000000000000000020816681711721685132943093776703e-02
1.700000000000000122124532708767219446599483489990e-01,5.000110704103086917138298872487212065607309341431e-02,2.550919311432733134134553942828915751306340098381e-04,1.000000000000000020816681711721685132943093776703e-02
1.800000000000000210942374678779742680490016937256e-01,5.000125125830212624578052782453596591949462890625e-02,2.701091367921473643080865212340313519234769046307e-04,1.000000000000000020816681711721685132943093776703e-02
1.900000000000000299760216648792265914380550384521e-01,5.000140498160509511249571801272395532578229904175e-02,2.851283659371085213614371856039042540942318737507e-04,1.000000000000000020816681711721685132943093776703e-02
2.000000000000000388578058618804789148271083831787e-01,5.000156832453427069307139163356623612344264984131e-02,3.001497311712495656525756526633585963281802833080e-04,1.000000000000000020816681711721685132943093776703e-02
2.100000000000000477395900588817312382161617279053e-01,5.000174140074795797739071190335380379110574722290e-02,3.151733451037261129167033057996150091639719903469e-04,1.000000000000000020816681711721685132943093776703e-02
2.200000000000000566213742558829835616052150726318e-01,5.000192432396858427390284873581549618393182754517e-02,3.301993203600069558267815494900787598453462123871e-04,1.000000000000000020816681711721685132943093776703e-02
2.300000000000000655031584528842358849942684173584e-01,5.000211720798303227653036628908012062311172485352e-02,3.452277695821239183841810937991567698190920054913e-04,1.000000000000000020816681711721685132943093776703e-02
2.400000000000000743849426498854882083833217620850e-01,5.000232016664293843710709097649669274687767028809e-02,3.602588054289208971577018747467491266434080898762e-04,1.000000000000000020816681711721685132943093776703e-02
2.500000000000000555111512312578270211815834045410e-01,5.000253331386500521560378729191143065690994262695e-02,3.752925405763024688417239804749669929151423275471e-04,1.000000000000000020816681711721685132943093776703e-02
2.600000000000000643929354282590793445706367492676e-01,5.000275676363132026924773754217312671244144439697e-02,3.903290877174814678222947161856382081168703734875e-04,1.000000000000000020816681711721685132943093776703e-02
2.700000000000000732747196252603316679596900939941e-01,5.000299062998966176385451376518176402896642684937e-02,4.053685595632261300623466748760392874828539788723e-04,1.000000000000000020816681711721685132943093776703e-02
2.800000000000000821565038222615839913487434387207e-01,5.000323502705383144073536527685064356774091720581e-02,4.204110688421061527847433225701934134121984243393e-04,1.000000000000000020816681711721685132943093776703e-02
2.900000000000000910382880192628363147377967834473e-01,5.000349006900393911134727886746986769139766693115e-02,4.354567283007382662643469650731731235282495617867e-04,1.000000000000000020816681711721685132943093776703e-02
3.000000000000000999200722162640886381268501281738e-01,5.000375587008672184641255853421171195805072784424e-02,4.505056507040305587875883563953038901672698557377e-04,1.000000000000000020816681711721685132943093776703e-02
3.100000000000001088018564132653409615159034729004e-01,5.000403254461587704282621302809275221079587936401e-02,4.655579488354262053008414401489289957680739462376e-04,1.000000000000000020816681711721685132943093776703e-02
3.200000000000001176836406102665932849049568176270e-01,5.000432020697234691830601605033734813332557678223e-02,4.806137354971462202768428539911838015541434288025e-04,1.000000000000000020816681711721685132943093776703e-02
3.300000000000001265654248072678456082940101623535e-01,5.000461897160463076161818207765463739633560180664e-02,4.956731235104310179587217000118926080176606774330e-04,1.000000000000000020816681711721685132943093776703e-02
3.400000000000001354472090042690979316830635070801e-01,5.000492895302911106059085000197228509932756423950e-02,5.107362257157812678726171995435834105592221021652e-04,1.000000000000000020816681711721685132943093776703e-02
3.500000000000001443289932012703502550721168518066e-01,5.000525026583035187455195114125672262161970138550e-02,5.258031549731976119280152381918469473021104931831e-04,1.000000000000000020816681711721685132943093776703e-02
3.600000000000001532107773982716025784611701965332e-01,5.000558302466140414566098115756176412105560302734e-02,5.408740241624190262653693039851532375905662775040e-04,1.000000000000000020816681711721685132943093776703e-02
3.700000000000001620925615952728549018502235412598e-01,5.000592734424412488802857978953397832810878753662e-02,5.559489461831605867925265584972294163890182971954e-04,1.000000000000000020816681711721685132943093776703e-02
3.800000000000001709743457922741072252392768859863e-01,5.000628333936946168236659104877617210149765014648e-02,5.710280339553496084178951797127865575021132826805e-04,1.000000000000000020816681711721685132943093776703e-02
3.900000000000001798561299892753595486283302307129e-01,5.000665112489779268178935467403789516538381576538e-02,5.861114004193607000814392193888124893419444561005e-04,1.000000000000000020816681711721685132943093776703e-02
4.000000000000001887379141862766118720173835754395e-01,5.000703081575919722867595851312216836959123611450e-02,6.011991585362499524239354720123174047330394387245e-04,1.000000000000000020816681711721685132943093776703e-02
4.100000000000001976196983832778641954064369201660e-01,5.000742252695378198268372216261923313140869140625e-02,6.162914212879871738923198698500982573023065924644e-04,1.000000000000000020816681711721685132943093776703e-02
4.200000000000002065014825802791165187954902648926e-01,5.000782637355198623207996888595516793429851531982e-02,6.313883016776878015843821323471729556331411004066e-04,1.000000000000000020816681711721685132943093776703e-02
4.300000000000002153832667772803688421845436096191e-01,5.000824247069487332728598971698374953120946884155e-02,6.464899127298422100082464503145729395328089594841e-04,1.000000000000000020816681711721685132943093776703e-02
4.400000000000002242650509742816211655735969543457e-01,5.000867093359443599220881537803506944328546524048e-02,6.615963674905449114216349215666923555545508861542e-04,1.000000000000000020816681711721685132943093776703e-02
4.500000000000002331468351712828734889626502990723e-01,5.000911187753389469667908429073577281087636947632e-02,6.767077790277214793465687669993258168688043951988e-04,1.000000000000000020816681711721685132943093776703e-02
4.600000000000002420286193682841258123517036437988e-01,5.000956541786800990667671840128605253994464874268e-02,6.918242604313542794616798126128287549363449215889e-04,1.000000000000000020816681711721685132943093776703e-02
4.700000000000002509104035652853781357407569885254e-01,5.001003167002338045676879119127988815307617187500e-02,7.069459248137068994519149889299569622380658984184e-04,1.000000000000000020816681711721685132943093776703e-02
4.800000000000002597921877622866304591298103332520e-01,5.001051074949871416697178005961177404969930648804e-02,7.220728853095468441347648536066117230802774429321e-04,1.000000000000000020816681711721685132943093776703e-02
4.900000000000002686739719592878827825188636779785e-01,5.001100277186516784855285777666722424328327178955e-02,7.372052550763664958630161372354905324755236506462e-04,1.000000000000000020816681711721685132943093776703e-02
5.000000000000002220446049250313080847263336181641e-01,5.001150785276661098199824095900112297385931015015e-02,7.523431472946030991455490521957472083158791065216e-04,1.000000000000000020816681711721685132943093776703e-02
5.100000000000002309263891220325604081153869628906e-01,5.001202610791993102834496198738634120672941207886e-02,7.674866751678563600233551333928971871500834822655e-04,1.000000000000000020816681711721685132943093776703e-02
5.200000000000002398081733190338127315044403076172e-01,5.001255765311532486272483311040559783577919006348e-02,7.826359519231048528231653449438454117625951766968e-04,1.000000000000000020816681711721685132943093776703e-02
5.300000000000002486899575160350650548934936523438e-01,5.001310260421660408569621836250007618218660354614e-02,7.977910908109206921876022100548198068281635642052e-04,1.000000000000000020816681711721685132943093776703e-02
5.400000000000002575717417130363173782825469970703e-01,5.001366107716146564010628594587615225464105606079e-02,8.129522051056821451212042184408801404060795903206e-04,1.000000000000000020816681711721685132943093776703e-02
5.500000000000002664535259100375697016716003417969e-01,5.001423318796179712242278014855401124805212020874e-02,8.281194081057847251534087540392192750005051493645e-04,1.000000000000000020816681711721685132943093776703e-02
5.600000000000002753353101070388220250606536865234e-01,5.001481905270396127738408154073113109916448593140e-02,8.432928131338504433578417973649266059510409832001e-04,1.000000000000000020816681711721685132943093776703e-02
5.700000000000002842170943040400743484497070312500e-01,5.001541878754908049264926717114576604217290878296e-02,8.584725335369351078076971539587702864082530140877e-04,1.000000000000000020816681711721685132943093776703e-02
5.800000000000002930988785010413266718387603759766e-01,5.001603250873332823234207467066880781203508377075e-02,8.736586826867336714672052089269982388941571116447e-04,1.000000000000000020816681711721685132943093776703e-02
5.900000000000003019806626980425789952278137207031e-01,5.001666033256820659280705854143889155238866806030e-02,8.888513739797839537798429532244881556835025548935e-04,1.000000000000000020816681711721685132943093776703e-02
6.000000000000003108624468950438313186168670654297e-01,5.001730237544083773615355426045425701886415481567e-02,9.040507208376678685915472932776992820436134934425e-04,1.000000000000000020816681711721685132943093776703e-02
6.100000000000003197442310920450836420059204101562e-01,5.001795875381424144601183456870785448700189590454e-02,9.192568367072112426111041294518599897855892777443e-04,1.000000000000000020816681711721685132943093776703e-02
6.200000000000003286260152890463359653949737548828e-01,5.001862958422761962218316966755082830786705017090e-02,9.344698350606810317853234693075137329287827014923e-04,1.000000000000000020816681711721685132943093776703e-02
6.300000000000003375077994860475882887840270996094e-01,5.001931498329661995860817569337086752057075500488e-02,9.496898293959808029507385640499705914407968521118e-04,1.000000000000000020816681711721685132943093776703e-02
6.400000000000003463895836830488406121730804443359e-01,5.002001506771363431580468272841244470328092575073e-02,9.649169332368439386607428254194473993266001343727e-04,1.000000000000000020816681711721685132943093776703e-02
6.500000000000003552713678800500929355621337890625e-01,5.002072995424805545994217936822678893804550170898e-02,9.801512601330247820285990201227832585573196411133e-04,1.000000000000000020816681711721685132943093776703e-02
6.600000000000003641531520770513452589511871337891e-01,5.002145975974656849638577682526374701410531997681e-02,9.953929236604873963256689961554002366028726100922e-04,1.000000000000000020816681711721685132943093776703e-02
6.700000000000003730349362740525975823402404785156e-01,5.002220460113340760877065349632175639271736145020e-02,1.010642037421592264595515686664839449804276227951e-03,1.000000000000000020816681711721685132943093776703e-02
6.800000000000003819167204710538499057292938232422e-01,5.002296459541063361475821125168295111507177352905e-02,1.025898715045280495603008397154098929604515433311e-03,1.000000000000000020816681711721685132943093776703e-02
6.900000000000003907985046680551022291183471679688e-01,5.002373985965840458289832781701989006251096725464e-02,1.041163070187256295059952115877877076854929327965e-03,1.000000000000000020816681711721685132943093776703e-02
7.000000000000003996802888650563545525074005126953e-01,5.002453051103524644949160915530228521674871444702e-02,1.056435216530166075823982119175070693017914891243e-03,1.000000000000000020816681711721685132943093776703e-02
7.100000000000004085620730620576068758964538574219e-01,5.002533666677829587987602621979021932929754257202e-02,1.071715267783776050214417097095065400935709476471e-03,1.000000000000000020816681711721685132943093776703e-02
7.200000000000004174438572590588591992855072021484e-01,5.002615844420359170197087905762600712478160858154e-02,1.087003337685147220242898313813384447712451219559e-03,1.000000000000000020816681711721685132943093776703e-02
7.300000000000004263256414560601115226745605468750e-01,5.002699596070632470645733747005579061806201934814e-02,1.102299539998807115237511311534035485237836837769e-03,1.000000000000000020816681711721685132943093776703e-02
7.400000000000004352074256530613638460636138916016e-01,5.002784933376109438585288557987951207906007766724e-02,1.117603988516920662105169625988310144748538732529e-03,1.000000000000000020816681711721685132943093776703e-02
7.500000000000004440892098500626161694526672363281e-01,5.002871868092216567358576639890088699758052825928e-02,1.132916797059456501944874062814960780087858438492e-03,1.000000000000000020816681711721685132943093776703e-02
7.600000000000004529709940470638684928417205810547e-01,5.002960411982372568306942639537737704813480377197e-02,1.148238079474352222458799488435943203512579202652e-03,1.000000000000000020816681711721685132943093776703e-02
7.700000000000004618527782440651208162307739257812e-01,5.003050576818014738567086396869854070246219635010e-02,1.163567949637676337756864164418857399141415953636e-03,1.000000000000000020816681711721685132943093776703e-02
7.800000000000004707345624410663731396198272705078e-01,5.003142374378622553310336229515087325125932693481e-02,1.178906521453788099756954110830520221497863531113e-03,1.000000000000000020816681711721685132943093776703e-02
7.900000000000004796163466380676254630088806152344e-01,5.003235816451744033539483780259615741670131683350e-02,1.194253908855493623297761018875462468713521957397e-03,1.000000000000000020816681711721685132943093776703e-02
8.000000000000004884981308350688777863979339599609e-01,5.003330914833019338328057301623630337417125701904e-02,1.209610225804200276528144186727331543806940317154e-03,1.000000000000000020816681711721685132943093776703e-02
8.100000000000004973799150320701301097869873046875e-01,5.003427681326205050948985331160656642168760299683e-02,1.224975586290067601849540501746105292113497853279e-03,1.000000000000000020816681711721685132943093776703e-02
8.200000000000005062616992290713824331760406494141e-01,5.003526127743199852782041148202551994472742080688e-02,1.240350104332155851613594954585551022319123148918e-03,1.000000000000000020816681711721685132943093776703e-02
8.300000000000005151434834260726347565650939941406e-01,5.003626265904067421663725667713151779025793075562e-02,1.255733893978571704894142690989156108116731047630e-03,1.000000000000000020816681711721685132943093776703e-02
8.400000000000005240252676230738870799541473388672e-01,5.003728107637060718015931115587591193616390228271e-02,1.271127069306610731652673607072756567504256963730e-03,1.000000000000000020816681711721685132943093776703e-02
8.500000000000005329070518200751394033432006835938e-01,5.003831664778645577085214313228789251297712326050e-02,1.286529744422896821137713985194750421214848756790e-03,1.000000000000000020816681711721685132943093776703e-02
8.600000000000005417888360170763917267322540283203e-01,5.003936949173524301182069962123932782560586929321e-02,1.301942033463519225039428661716556234750896692276e-03,1.000000000000000020816681711721685132943093776703e-02
8.700000000000005506706202140776440501213073730469e-01,5.004043972674657864141423146975284907966852188110e-02,1.317364050594166131197271241148882836569100618362e-03,1.000000000000000020816681711721685132943093776703e-02
8.800000000000005595524044110788963735103607177734e-01,5.004152747143289503561902620276669040322303771973e-02,1.332795910010255418381985847986470616888254880905e-03,1.000000000000000020816681711721685132943093776703e-02
8.900000000000005684341886080801486968994140625000e-01,5.004263284448967619155723696167115122079849243164e-02,1.348237725937062158471091422029530804138630628586e-03,1.000000000000000020816681711721685132943093776703e-02
