time,u0,u1,tau
0.000000000000000000000000000000000000000000000000e+00,3.750000000000000555111512312578270211815834045410e-02,5.000000000000001665334536937734810635447502136230e-02,1.000000000000000020816681711721685132943093776703e-02
1.000000000000000020816681711721685132943093776703e-02,3.752790837513932109548164817169890739023685455322e-02,5.000923359290219277761835314777272287756204605103e-02,1.000000000000000020816681711721685132943093776703e-02
2.000000000000000041633363423443370265886187553406e-02,3.755601549041441555853992895208648405969142913818e-02,5.001865701324244295467025267498684115707874298096e-02,1.000000000000000020816681711721685132943093776703e-02
2.999999999999999888977697537484345957636833190918e-02,3.758432159434917096962891491784830577671527862549e-02,5.002827031907594590443011384195415303111076354980e-02,1.000000000000000020816681711721685132943093776703e-02
4.000000000000000083266726846886740531772375106812e-02,3.761282693671056526207863157651445362716913223267e-02,5.003807356918447968308072404397535137832164764404e-02,1.000000000000000020816681711721685132943093776703e-02
5.000000000000000277555756156289135105907917022705e-02,3.764153176851216947573774973534455057233572006226e-02,5.004806682307350734761897115276951808482408523560e-02,1.000000000000000020816681711721685132943093776703e-02
6.000000000000000471844785465691529680043458938599e-02,3.767043634201759638724382739383145235478878021240e-02,5.005825014096920710926497122272849082946777343750e-02,1.000000000000000020816681711721685132943093776703e-02
7.000000000000000666133814775093924254179000854492e-02,3.769954091074393526250574382174818310886621475220e-02,5.006862358381548167018948447548609692603349685669e-02,1.000000000000000020816681711721685132943093776703e-02
8.000000000000000166533453693773481063544750213623e-02,3.772884572946520048697394145165162626653909683228e-02,5.007918721327091204909010002666036598384380340576e-02,1.000000000000000020816681711721685132943093776703e-02
8.999999999999999666933092612453037872910499572754e-02,3.775835105421573162365334042078757192939519882202e-02,5.008994109170567671229790107645385432988405227661e-02,1.000000000000000020816681711721685132943093776703e-02
9.999999999999999167332731531132594682276248931885e-02,3.778805714229360734890406092745251953601837158203e-02,5.010088528219844294930851447134045884013175964355e-02,1.000000000000000020816681711721685132943093776703e-02
1.099999999999999866773237044981215149164199829102e-01,3.781796425226403163266652995844196993857622146606e-02,5.011201984853319579826802510069683194160461425781e-02,1.000000000000000020816681711721685132943093776703e-02
1.199999999999999816813200936849170830100774765015e-01,3.784807264396270604089878020204196218401193618774e-02,5.012334485519603921588327466452028602361679077148e-02,1.000000000000000020816681711721685132943093776703e-02
1.299999999999999766853164828717126511037349700928e-01,3.787838257849919509911984505379223264753818511963e-02,5.013486036737196255286264090500480961054563522339e-02,1.000000000000000020816681711721685132943093776703e-02
1.399999999999999855671006798729649744927883148193e-01,3.790889431826025696148363408610748592764139175415e-02,5.014656645094154457931168167306168470531702041626e-02,1.000000000000000020816681711721685132943093776703e-02
1.499999999999999944488848768742172978818416595459e-01,3.793960812691319489653452023958379868417978286743e-02,5.015846317247764363234097118038334883749485015869e-02,1.000000000000000020816681711721685132943093776703e-02
1.600000000000000033306690738754696212708950042725e-01,3.797052426940916713959950357093475759029388427734e-02,5.017055059924202531362880108645185828208923339844e-02,1.000000000000000020816681711721685132943093776703e-02
1.700000000000000122124532708767219446599483489990e-01,3.800164301198648286739256718647084198892116546631e-02,5.018282879918195549251436204940546303987503051758e-02,1.000000000000000020816681711721685132943093776703e-02
1.800000000000000210942374678779742680490016937256e-01,3.803296462217390511151293708280718419700860977173e-02,5.019529784092676555351530964799167122691869735718e-02,1.000000000000000020816681711721685132943093776703e-02
1.900000000000000299760216648792265914380550384521e-01,3.806448936879391897747382245142944157123565673828e-02,5.020795779378434131601238732400815933942794799805e-02,1.000000000000000020816681711721685132943093776703e-02
2.000000000000000388578058618804789148271083831787e-01,3.809621752196599292483725207603129092603921890259e-02,5.022080872773760501504014541751530487090349197388e-02,1.000000000000000020816681711721685132943093776703e-02
2.100000000000000477395900588817312382161617279053e-01,3.812814935310983310845500682262354530394077301025e-02,5.023385071344092789313862112976494245231151580811e-02,1.000000000000000020816681711721685132943093776703e-02
2.200000000000000566213742558829835616052150726318e-01,3.816028513494860302524003259350138250738382339478e-02,5.024708382221652891441721067167236469686031341553e-02,1.000000000000000020816681711721685132943093776703e-02
2.300000000000000655031584528842358849942684173584e-01,3.819262514151215009983175718843995127826929092407e-02,5.026050812605079715078559843277616892009973526001e-02,1.000000000000000020816681711721685132943093776703e-02
2.400000000000000743849426498854882083833217620850e-01,3.822516964814022533136750325866159982979297637939e-02,5.027412369759058641260907052128459326922893524170e-02,1.000000000000000020816681711721685132943093776703e-02
2.500000000000000555111512312578270211815834045410e-01,3.825791893148564049020876609574770554900169372559e-02,5.028793061013946824600040486075158696621656417847e-02,1.000000000000000020816681711721685132943093776703e-02
2.600000000000000643929354282590793445706367492676e-01,3.829087326951748082581872267837752588093280792236e-02,5.030192893765395023564224175061099231243133544922e-02,1.000000000000000020816681711721685132943093776703e-02
2.700000000000000732747196252603316679596900939941e-01,3.832403294152424144680679773955489508807659149170e-02,5.031611875473961104088260753997019492089748382568e-02,1.000000000000000020816681711721685132943093776703e-02
2.800000000000000821565038222615839913487434387207e-01,3.835739822811699145654884546274843160063028335571e-02,5.033050013664724930961824611586052924394607543945e-02,1.000000000000000020816681711721685132943093776703e-02
2.900000000000000910382880192628363147377967834473e-01,3.839096941123248951655000382743310183286666870117e-02,5.034507315926893544766329569029039703309535980225e-02,1.000000000000000020816681711721685132943093776703e-02
3.000000000000000999200722162640886381268501281738e-01,3.842474677413633410427706849077367223799228668213e-02,5.035983789913404257143625386561325285583734512329e-02,1.000000000000000020816681711721685132943093776703e-02
3.100000000000001088018564132653409615159034729004e-01,3.845873060142603050426401978256762959063053131104e-02,5.037479443340522194949571144206856843084096908569e-02,1.000000000000000020816681711721685132943093776703e-02
3.200000000000001176836406102665932849049568176270e-01,3.849292117903412024926268486524350009858608245850e-02,5.038994283987435762739437450363766402006149291992e-02,1.000000000000000020816681711721685132943093776703e-02
3.300000000000001265654248072678456082940101623535e-01,3.852731879423122729466655300711863674223423004150e-02,5.040528319695843778580623961715900804847478866577e-02,1.000000000000000020816681711721685132943093776703e-02
3.400000000000001354472090042690979316830635070801e-01,3.856192373562914582629801429902727250009775161743e-02,5.042081558369540528197205730975838378071784973145e-02,1.000000000000000020816681711721685132943093776703e-02
3.500000000000001443289932012703502550721168518066e-01,3.859673629318387255704436711312155239284038543701e-02,5.043654007973995267999356428845203481614589691162e-02,1.000000000000000020816681711721685132943093776703e-02
3.600000000000001532107773982716025784611701965332e-01,3.863175675819864596238772946890094317495822906494e-02,5.045245676535927564776429221637954469770193099976e-02,1.000000000000000020816681711721685132943093776703e-02
3.700000000000001620925615952728549018502235412598e-01,3.866698542332696469925323867755651008337736129761e-02,5.046856572142876390385524132398131769150495529175e-02,1.000000000000000020816681711721685132943093776703e-02
3.800000000000001709743457922741072252392768859863e-01,3.870242258257559214706944317185843829065561294556e-02,5.048486702942766440882493839126254897564649581909e-02,1.000000000000000020816681711721685132943093776703e-02
3.900000000000001798561299892753595486283302307129e-01,3.873806853130755400993479042881517671048641204834e-02,5.050136077143469598427216737945855129510164260864e-02,1.000000000000000020816681711721685132943093776703e-02
4.000000000000001887379141862766118720173835754395e-01,3.877392356624511510210240317064744886010885238647e-02,5.051804703012358760405575708318792749196290969849e-02,1.000000000000000020816681711721685132943093776703e-02
4.100000000000001976196983832778641954064369201660e-01,3.880998798547273531678314384407713077962398529053e-02,5.053492588875860974662046487537736538797616958618e-02,1.000000000000000020816681711721685132943093776703e-02
4.200000000000002065014825802791165187954902648926e-01,3.884626208844001865605477519238775130361318588257e-02,5.055199743119002248059601356544590089470148086548e-02,1.000000000000000020816681711721685132943093776703e-02
4.300000000000002153832667772803688421845436096191e-01,3.888274617596465532187721692025661468505859375000e-02,5.056926174184948885592660872134729288518428802490e-02,1.000000000000000020816681711721685132943093776703e-02
4.400000000000002242650509742816211655735969543457e-01,3.891944055023532217374437891521665733307600021362e-02,5.058671890574543972274312864101375453174114227295e-02,1.000000000000000020816681711721685132943093776703e-02
4.500000000000002331468351712828734889626502990723e-01,3.895634551481460400301770619080343749374151229858e-02,5.060436900845838997797798697320104110985994338989e-02,1.000000000000000020816681711721685132943093776703e-02
4.600000000000002420286193682841258123517036437988e-01,3.899346137464188011279020429356023669242858886719e-02,5.062221213613619236193486017327813897281885147095e-02,1.000000000000000020816681711721685132943093776703e-02
4.700000000000002509104035652853781357407569885254e-01,3.903078843603619701996265689558640588074922561646e-02,5.064024837548925656038889542287506628781557083130e-02,1.000000000000000020816681711721685132943093776703e-02
4.800000000000002597921877622866304591298103332520e-01,3.906832700669913421842593947985733393579721450806e-02,5.065847781378571973442959119893203023821115493774e-02,1.000000000000000020816681711721685132943093776703e-02
4.900000000000002686739719592878827825188636779785e-01,3.910607739571764218666771739663090556859970092773e-02,5.067690053884653378357683095600805245339870452881e-02,1.000000000000000020816681711721685132943093776703e-02
5.000000000000002220446049250313080847263336181641e-01,3.914403991356687345648524001262558158487081527710e-02,5.069551663904055260889691680858959443867206573486e-02,1.000000000000000020816681711721685132943093776703e-02
5.100000000000002309263891220325604081153869628906e-01,3.918221487211301368169813486019847914576530456543e-02,5.071432620327951529271004460497351828962564468384e-02,1.000000000000000020816681711721685132943093776703e-02
5.200000000000002398081733190338127315044403076172e-01,3.922060258461605719570997052869643084704875946045e-02,5.073332932101302233940387509392166975885629653931e-02,1.000000000000000020816681711721685132943093776703e-02
5.300000000000002486899575160350650548934936523438e-01,3.925920336573262420243324299917730968445539474487e-02,5.075252608222342171062635429734655190259218215942e-02,1.000000000000000020816681711721685132943093776703e-02
5.400000000000002575717417130363173782825469970703e-01,3.929801753151871551716922681407595518976449966431e-02,5.077191657742066710490291825408348813652992248535e-02,1.000000000000000020816681711721685132943093776703e-02
5.500000000000002664535259100375697016716003417969e-01,3.933704539943246730748782624687009956687688827515e-02,5.079150089763712766499637041306414175778627395630e-02,1.000000000000000020816681711721685132943093776703e-02
5.600000000000002753353101070388220250606536865234e-01,3.937628728833689889521352256451791618019342422485e-02,5.081127913442230747964600823252112604677677154541e-02,1.000000000000000020816681711721685132943093776703e-02
5.700000000000002842170943040400743484497070312500e-01,3.941574351850264668062351347543881274759769439697e-02,5.083125137983755814641284587196423672139644622803e-02,1.000000000000000020816681711721685132943093776703e-02
5.800000000000002930988785010413266718387603759766e-01,3.945541441161066337217633304135233629494905471802e-02,5.085141772645070806779798999741615261882543563843e-02,1.000000000000000020816681711721685132943093776703e-02
5.900000000000003019806626980425789952278137207031e-01,3.949530029075492415513437549634545575827360153198e-02,5.087177826733063623620978432882111519575119018555e-02,1.000000000000000020816681711721685132943093776703e-02
6.000000000000003108624468950438313186168670654297e-01,3.953540148044510510461080343702633399516344070435e-02,5.089233309604181826335533855854009743779897689819e-02,1.000000000000000020816681711721685132943093776703e-02
6.100000000000003197442310920450836420059204101562e-01,3.957571830660925465972255210544972214847803115845e-02,5.091308230663878914290521038310544099658727645874e-02,1.000000000000000020816681711721685132943093776703e-02
6.200000000000003286260152890463359653949737548828e-01,3.961625109659643734216771804312884341925382614136e-02,5.093402599366055050200685627714847214519977569580e-02,1.000000000000000020816681711721685132943093776703e-02
6.300000000000003375077994860475882887840270996094e-01,3.965700017917937053590904383781889919191598892212e-02,5.095516425212494315832856273118522949516773223877e-02,1.000000000000000020816681711721685132943093776703e-02
6.400000000000003463895836830488406121730804443359e-01,3.969796588455706126685740287030057515949010848999e-02,5.097649717752295722705824232434679288417100906372e-02,1.000000000000000020816681711721685132943093776703e-02
6.500000000000003552713678800500929355621337890625e-01,3.973914854435739441029795671056490391492843627930e-02,5.099802486581297977785709463205421343445777893066e-02,1.000000000000000020816681711721685132943093776703e-02
6.600000000000003641531520770513452589511871337891e-01,3.978054849163972783721021642122650519013404846191e-02,5.101974741341496616398032415418128948658704757690e-02,1.000000000000000020816681711721685132943093776703e-02
6.700000000000003730349362740525975823402404785156e-01,3.982216606089747368280029604648007079958915710449e-02,5.104166491720460441250395433598896488547325134277e-02,1.000000000000000020816681711721685132943093776703e-02
6.800000000000003819167204710538499057292938232422e-01,3.986400158806064492056364656491496134549379348755e-02,5.106377747450737553114308298063406255096197128296e-02,1.000000000000000020816681711721685132943093776703e-02
6.900000000000003907985046680551022291183471679688e-01,3.990605541049840887524169374955818057060241699219e-02,5.108608518309256524281281031107937451452016830444e-02,1.000000000000000020816681711721685132943093776703e-02
7.000000000000003996802888650563545525074005126953e-01,3.994832786702161991909676430623221676796674728394e-02,5.110858814116725490350745531031861901283264160156e-02,1.000000000000000020816681711721685132943093776703e-02
7.100000000000004085620730620576068758964538574219e-01,3.999081929788531747371749247577099595218896865845e-02,5.113128644737019445898340563871897757053375244141e-02,1.000000000000000020816681711721685132943093776703e-02
7.200000000000004174438572590588591992855072021484e-01,4.003353004479123788961203445069259032607078552246e-02,5.115418020076565458476025582967849913984537124634e-02,1.000000000000000020816681711721685132943093776703e-02
7.300000000000004263256414560601115226745605468750e-01,4.007646045089027775354395544127328321337699890137e-02,5.117726950083721637607681032022810541093349456787e-02,1.000000000000000020816681711721685132943093776703e-02
7.400000000000004352074256530613638460636138916016e-01,4.011961086078497107365592455607838928699493408203e-02,5.120055444748148471001414350212144199758768081665e-02,1.000000000000000020816681711721685132943093776703e-02
7.500000000000004440892098500626161694526672363281e-01,4.016298162053194564791169796080794185400009155273e-02,5.122403514100177385204304414401121903210878372192e-02,1.000000000000000020816681711721685132943093776703e-02
7.600000000000004529709940470638684928417205810547e-01,4.020657307764433779917467859377211425453424453735e-02,5.124771168210167510137509339074313174933195114136e-02,1.000000000000000020816681711721685132943093776703e-02
7.700000000000004618527782440651208162307739257812e-01,4.025038558109421404918037978859501890838146209717e-02,5.127158417187863831410155057710653636604547500610e-02,1.000000000000000020816681711721685132943093776703e-02
7.800000000000004707345624410663731396198272705078e-01,4.029441948131497891472108108246175106614828109741e-02,5.129565271181742158734806480424595065414905548096e-02,1.000000000000000020816681711721685132943093776703e-02
7.900000000000004796163466380676254630088806152344e-01,4.033867513020376188714877230268029961735010147095e-02,5.131991740378353400453548260884417686611413955688e-02,1.000000000000000020816681711721685132943093776703e-02
8.000000000000004884981308350688777863979339599609e-01,4.038315288112376971740857811710156966000795364380e-02,5.134437835001657429723209702387975994497537612915e-02,1.000000000000000020816681711721685132943093776703e-02
8.100000000000004973799150320701301097869873046875e-01,4.042785308890665257885999039899616036564111709595e-02,5.136903565312353481253637710324255749583244323730e-02,1.000000000000000020816681711721685132943093776703e-02
8.200000000000005062616992290713824331760406494141e-01,4.047277610985483553562858105578925460577011108398e-02,5.139388941607203609152065837406553328037261962891e-02,1.000000000000000020816681711721685132943093776703e-02
8.300000000000005151434834260726347565650939941406e-01,4.051792230174383613316990704333875328302383422852e-02,5.141893974218349205873579421677277423441410064697e-02,1.000000000000000020816681711721685132943093776703e-02
8.400000000000005240252676230738870799541473388672e-01,4.056329202382455423325779975129989907145500183105e-02,5.144418673512620582277676817284373100847005844116e-02,1.000000000000000020816681711721685132943093776703e-02
8.500000000000005329070518200751394033432006835938e-01,4.060888563682558960454827001740341074764728546143e-02,5.146963049890842384348488280920719262212514877319e-02,1.000000000000000020816681711721685132943093776703e-02
8.600000000000005417888360170763917267322540283203e-01,4.065470350295547624641656625499308574944734573364e-02,5.149527113787131377131700560312310699373483657837e-02,1.000000000000000020816681711721685132943093776703e-02
8.700000000000005506706202140776440501213073730469e-01,4.070074598590495140726375211670529097318649291992e-02,5.152110875668185208109406403309549205005168914795e-02,1.000000000000000020816681711721685132943093776703e-02
8.800000000000005595524044110788963735103607177734e-01,4.074701345084918990835376462200656533241271972656e-02,5.154714346032570476685563676255696918815374374390e-02,1.000000000000000020816681711721685132943093776703e-02
8.900000000000005684341886080801486968994140625000e-01,4.079350626445002458986266447027446702122688293457e-02,5.157337535409997619773037058621412143111228942871e-02,1.000000000000000020816681711721685132943093776703e-02
