time,u0,u1,tau
0.000000000000000000000000000000000000000000000000e+00,0.000000000000000000000000000000000000000000000000e+00,3.750000000000000555111512312578270211815834045410e-02,1.000000000000000020816681711721685132943093776703e-02
1.000000000000000020816681711721685132943093776703e-02,1.717968761952481240927285977004856931671383790672e-05,3.750007026102556567659362940503342542797327041626e-02,1.000000000000000020816681711721685132943093776703e-02
2.000000000000000041633363423443370265886187553406e-02,3.450004099127436515623279511544296838110312819481e-05,3.750028705298750347774117130938975606113672256470e-02,1.000000000000000020816681711721685132943093776703e-02
2.999999999999999888977697537484345957636833190918e-02,5.196114494843173567091912379289908585633384063840e-05,3.750065042533971826355099210559274069964885711670e-02,1.000000000000000020816681711721685132943093776703e-02
4.000000000000000083266726846886740531772375106812e-02,6.956308514540956034876567626312748870986979454756e-05,3.750116042831119073097667637739505153149366378784e-02,1.000000000000000020816681711721685132943093776703e-02
5.000000000000000277555756156289135105907917022705e-02,8.730594805978046668310660338718776074529159814119e-05,3.750181711290651032086884697491768747568130493164e-02,1.000000000000000020816681711721685132943093776703e-02
6.000000000000000471844785465691529680043458938599e-02,1.051898209941955723975212655396660466067260131240e-04,3.750262053090638869612405414954992011189460754395e-02,1.000000000000000020816681711721685132943093776703e-02
7.000000000000000666133814775093924254179000854492e-02,1.232147920782912108202122869471395461005158722401e-04,3.750357073486815240315195296716410666704177856445e-02,1.000000000000000020816681711721685132943093776703e-02
8.000000000000000166533453693773481063544750213623e-02,1.413809502705837164819591134090615014429204165936e-04,3.750466777812621471666076899964537005871534347534e-02,1.000000000000000020816681711721685132943093776703e-02
8.999999999999999666933092612453037872910499572754e-02,1.596883853603525216593994606739670416573062539101e-04,3.750591171479253360665495620196452364325523376465e-02,1.000000000000000020816681711721685132943093776703e-02
9.999999999999999167332731531132594682276248931885e-02,1.781371879695113537994677344045157951768487691879e-04,3.750730259975706970543285478925099596381187438965e-02,1.000000000000000020816681711721685132943093776703e-02
1.099999999999999866773237044981215149164199829102e-01,1.967274495544676829027891384882309466775041073561e-04,3.750884048868819570232702176326711196452379226685e-02,1.000000000000000020816681711721685132943093776703e-02
1.199999999999999816813200936849170830100774765015e-01,2.154592624079705272862467202443781388865318149328e-04,3.751052543803312655512627316056750714778900146484e-02,1.000000000000000020816681711721685132943093776703e-02
1.299999999999999766853164828717126511037349700928e-01,2.343327196609463873317596993572919927828479558229e-04,3.751235750501829419034649504283152054995298385620e-02,1.000000000000000020816681711721685132943093776703e-02
1.399999999999999855671006798729649744927883148193e-01,2.533479152843236053768705140498695982387289404869e-04,3.751433674764973608128926230165234301239252090454e-02,1.000000000000000020816681711721685132943093776703e-02
1.499999999999999944488848768742172978818416595459e-01,2.725049440908450162218690238091767241712659597397e-04,3.751646322471344913163093792718427721410989761353e-02,1.000000000000000020816681711721685132943093776703e-02
1.600000000000000033306690738754696212708950042725e-01,2.918039017368688069382909322513341976446099579334e-04,3.751873699577575049790567618401837535202503204346e-02,1.000000000000000020816681711721685132943093776703e-02
1.700000000000000122124532708767219446599483489990e-01,3.112448847241578299242792393641821035998873412609e-04,3.752115812118357596194329062200267799198627471924e-02,1.000000000000000020816681711721685132943093776703e-02
1.800000000000000210942374678779742680490016937256e-01,3.308279904016574505219716595405543557717464864254e-04,3.752372666206481299777664162320434115827083587646e-02,1.000000000000000020816681711721685132943093776703e-02
1.900000000000000299760216648792265914380550384521e-01,3.505533169672614955160450112003900358104147017002e-04,3.752644268032857832739779269104474224150180816650e-02,1.000000000000000020816681711721685132943093776703e-02
2.000000000000000388578058618804789148271083831787e-01,3.704209634695668175094485086162876541493460536003e-04,3.752930623866551629319587846111971884965896606445e-02,1.000000000000000020816681711721685132943093776703e-02
2.100000000000000477395900588817312382161617279053e-01,3.904310298096160957055655860159504300099797546864e-04,3.753231740054802784145593363973603118211030960083e-02,1.000000000000000020816681711721685132943093776703e-02
2.200000000000000566213742558829835616052150726318e-01,4.105836167426293609877818724385178938973695039749e-04,3.753547623023053420032724147858971264213323593140e-02,1.000000000000000020816681711721685132943093776703e-02
2.300000000000000655031584528842358849942684173584e-01,4.308788258797237031953730745925668088602833449841e-04,3.753878279274969198553435489884577691555023193359e-02,1.000000000000000020816681711721685132943093776703e-02
2.400000000000000743849426498854882083833217620850e-01,4.513167596896217026967990104679984142421744763851e-04,3.754223715392459442830030980076116975396871566772e-02,1.000000000000000020816681711721685132943093776703e-02
2.500000000000000555111512312578270211815834045410e-01,4.718975215003480983694261752248166885692626237869e-04,3.754583938035697260326983837330772075802087783813e-02,1.000000000000000020816681711721685132943093776703e-02
2.600000000000000643929354282590793445706367492676e-01,4.926212155009151256665478335605712345568463206291e-04,3.754958953943136196196306286765320692211389541626e-02,1.000000000000000020816681711721685132943093776703e-02
2.700000000000000732747196252603316679596900939941e-01,5.134879467429962537211585171803562843706458806992e-04,3.755348769931525498844138155618566088378429412842e-02,1.000000000000000020816681711721685132943093776703e-02
2.800000000000000821565038222615839913487434387207e-01,5.344978211425888093774605458463611284969374537468e-04,3.755753392895923997718554687708092387765645980835e-02,1.000000000000000020816681711721685132943093776703e-02
2.900000000000000910382880192628363147377967834473e-01,5.556509454816644039479300865025379607686772942543e-04,3.756172829809711205539812794995668809860944747925e-02,1.000000000000000020816681711721685132943093776703e-02
3.000000000000000999200722162640886381268501281738e-01,5.769474274098088974194187272814815514720976352692e-04,3.756607087724599114419987699875491671264171600342e-02,1.000000000000000020816681711721685132943093776703e-02
3.100000000000001088018564132653409615159034729004e-01,5.983873754458500027544887167607612354913726449013e-04,3.757056173770639134756876842402562033385038375854e-02,1.000000000000000020816681711721685132943093776703e-02
3.200000000000001176836406102665932849049568176270e-01,6.199708989794741565912405967253562266705557703972e-04,3.757520095156229034127903787521063350141048431396e-02,1.000000000000000020816681711721685132943093776703e-02
3.300000000000001265654248072678456082940101623535e-01,6.416981082728313552990262458308734494494274258614e-04,3.757998859168117794515850960124225821346044540405e-02,1.000000000000000020816681711721685132943093776703e-02
3.400000000000001354472090042690979316830635070801e-01,6.635691144621293658528715653233120974618941545486e-04,3.758492473171407693977030817222839687019586563110e-02,1.000000000000000020816681711721685132943093776703e-02
3.500000000000001443289932012703502550721168518066e-01,6.855840295592157936435673271091673086630180478096e-04,3.759000944609557082198847410836606286466121673584e-02,1.000000000000000020816681711721685132943093776703e-02
3.600000000000001532107773982716025784611701965332e-01,7.077429664531493082660351667811937659280374646187e-04,3.759524281004377604942234825102786999195814132690e-02,1.000000000000000020816681711721685132943093776703e-02
3.700000000000001620925615952728549018502235412598e-01,7.300460389117589430837962360953952156705781817436e-04,3.760062489956034204041657176276203244924545288086e-02,1.000000000000000020816681711721685132943093776703e-02
3.800000000000001709743457922741072252392768859863e-01,7.524933615831927696121494975045607134234160184860e-04,3.760615579143038178511204705500858835875988006592e-02,1.000000000000000020816681711721685132943093776703e-02
3.900000000000001798561299892753595486283302307129e-01,7.750850499974545372572354295925833866931498050690e-04,3.761183556322241633429470653027237858623266220093e-02,1.000000000000000020816681711721685132943093776703e-02
4.000000000000001887379141862766118720173835754395e-01,7.978212205679293626131576289139957225415855646133e-04,3.761766429328831234935037741706764791160821914673e-02,1.000000000000000020816681711721685132943093776703e-02
4.100000000000001976196983832778641954064369201660e-01,8.207019905928977093756415683856175746768712997437e-04,3.762364206076315720217451143980724737048149108887e-02,1.000000000000000020816681711721685132943093776703e-02
4.200000000000002065014825802791165187954902648926e-01,8.437274782570385262339685006338640960166230797768e-04,3.762976894556516183065753011760534718632698059082e-02,1.000000000000000020816681711721685132943093776703e-02
4.300000000000002153832667772803688421845436096191e-01,8.668978026329206753794465178941663907608017325401e-04,3.763604502839550114412503489802475087344646453857e-02,1.000000000000000020816681711721685132943093776703e-02
4.400000000000002242650509742816211655735969543457e-01,8.902130836824829768910705141138350882101804018021e-04,3.764247039073818218435363291973771993070840835571e-02,1.000000000000000020816681711721685132943093776703e-02
4.500000000000002331468351712828734889626502990723e-01,9.136734422585034110994572920105838420568034052849e-04,3.764904511485985677543553151735977735370397567749e-02,1.000000000000000020816681711721685132943093776703e-02
4.600000000000002420286193682841258123517036437988e-01,9.372790001060562863066660810318353469483554363251e-04,3.765576928380962029585532491182675585150718688965e-02,1.000000000000000020816681711721685132943093776703e-02
4.700000000000002509104035652853781357407569885254e-01,9.610298798639586729045114488201306812698021531105e-04,3.766264298141881045056678090077184606343507766724e-02,1.000000000000000020816681711721685132943093776703e-02
4.800000000000002597921877622866304591298103332520e-01,9.849262050662052365296306177810947701800614595413e-04,3.766966629230077828749401191998913418501615524292e-02,1.000000000000000020816681711721685132943093776703e-02
4.900000000000002686739719592878827825188636779785e-01,1.008968100143391903936174180955731571884825825691e-03,3.767683930185061758066922266152687370777130126953e-02,1.000000000000000020816681711721685132943093776703e-02
5.000000000000002220446049250313080847263336181641e-01,1.033155690424128036325468471545718784909695386887e-03,3.768416209624491503005216941346589010208845138550e-02,1.000000000000000020816681711721685132943093776703e-02
5.100000000000002309263891220325604081153869628906e-01,1.057489102136437543813518580293475679354742169380e-03,3.769163476244145188909229204909934196621179580688e-02,1.000000000000000020816681711721685132943093776703e-02
5.200000000000002398081733190338127315044403076172e-01,1.081968462409148290515048529414343647658824920654e-03,3.769925738817888477560913429442734923213720321655e-02,1.000000000000000020816681711721685132943093776703e-02
5.300000000000002486899575160350650548934936523438e-01,1.106593899273270549185599342933983280090615153313e-03,3.770703006197642648267276399565162137150764465332e-02,1.000000000000000020816681711721685132943093776703e-02
5.400000000000002575717417130363173782825469970703e-01,1.131365541663363963320598770678770961239933967590e-03,3.771495287313349209501467385052819736301898956299e-02,1.000000000000000020816681711721685132943093776703e-02
5.500000000000002664535259100375697016716003417969e-01,1.156283519418893233551837163020081788999959826469e-03,3.772302591172933816654477823249180801212787628174e-02,1.000000000000000020816681711721685132943093776703e-02
5.600000000000002753353101070388220250606536865234e-01,1.181347963285572528341349496372458816040307283401e-03,3.773124926862265332561108266418159473687410354614e-02,1.000000000000000020816681711721685132943093776703e-02
5.700000000000002842170943040400743484497070312500e-01,1.206559004916698402132269052344781812280416488647e-03,3.773962303545116969694106501265196129679679870605e-02,1.000000000000000020816681711721685132943093776703e-02
5.800000000000002930988785010413266718387603759766e-01,1.231916776874471871477956241847095952834933996201e-03,3.774814730463121187353792151952802669256925582886e-02,1.000000000000000020816681711721685132943093776703e-02
5.900000000000003019806626980425789952278137207031e-01,1.257421412631308131266361094446892820997163653374e-03,3.775682216935727364415242846007458865642547607422e-02,1.000000000000000020816681711721685132943093776703e-02
6.000000000000003108624468950438313186168670654297e-01,1.283073046571136296284398881084598542656749486923e-03,3.776564772360152533181576472998131066560745239258e-02,1.000000000000000020816681711721685132943093776703e-02
6.100000000000003197442310920450836420059204101562e-01,1.308871813990686782877559402038514235755428671837e-03,3.777462406211332807126623833937628660351037979126e-02,1.000000000000000020816681711721685132943093776703e-02
6.200000000000003286260152890463359653949737548828e-01,1.334817851100767631747356922744529583724215626717e-03,3.778375128041873420858820509238285012543201446533e-02,1.000000000000000020816681711721685132943093776703e-02
6.300000000000003375077994860475882887840270996094e-01,1.360911295027529555046186260369722731411457061768e-03,3.779302947481992525080585210162098519504070281982e-02,1.000000000000000020816681711721685132943093776703e-02
6.400000000000003463895836830488406121730804443359e-01,1.387152283813719707769585021139846503501757979393e-03,3.780245874239469838773430865330738015472888946533e-02,1.000000000000000020816681711721685132943093776703e-02
6.500000000000003552713678800500929355621337890625e-01,1.413540956419923966605467491319814143935218453407e-03,3.781203918099586280821000627838657237589359283447e-02,1.000000000000000020816681711721685132943093776703e-02
6.600000000000003641531520770513452589511871337891e-01,1.440077452725797499399895684746297774836421012878e-03,3.782177088925064989410884663811884820461273193359e-02,1.000000000000000020816681711721685132943093776703e-02
6.700000000000003730349362740525975823402404785156e-01,1.466761913531284926281994529517760383896529674530e-03,3.783165396656010953657656159521138761192560195923e-02,1.000000000000000020816681711721685132943093776703e-02
6.800000000000003819167204710538499057292938232422e-01,1.493594480557828120884100719933940126793459057808e-03,3.784168851309845788000174593435076531022787094116e-02,1.000000000000000020816681711721685132943093776703e-02
6.900000000000003907985046680551022291183471679688e-01,1.520575296449562735859317719189220952102914452553e-03,3.785187462981243200488279398996382951736450195312e-02,1.000000000000000020816681711721685132943093776703e-02
7.000000000000003996802888650563545525074005126953e-01,1.547704504774503886377345907021663151681423187256e-03,3.786221241842059603843750892337993718683719635010e-02,1.000000000000000020816681711721685132943093776703e-02
7.100000000000004085620730620576068758964538574219e-01,1.574982250025719907396415386813259829068556427956e-03,3.787270198141265420410661590722156688570976257324e-02,1.000000000000000020816681711721685132943093776703e-02
7.200000000000004174438572590588591992855072021484e-01,1.602408677622495052073059440544966491870582103729e-03,3.788334342204870835990604405196791049093008041382e-02,1.000000000000000020816681711721685132943093776703e-02
7.300000000000004263256414560601115226745605468750e-01,1.629983933911480480788425140303843363653868436813e-03,3.789413684435852941456701614697522018104791641235e-02,1.000000000000000020816681711721685132943093776703e-02
7.400000000000004352074256530613638460636138916016e-01,1.657708166167833540791121116342310415348038077354e-03,3.790508235314078017141881105089851189404726028442e-02,1.000000000000000020816681711721685132943093776703e-02
7.500000000000004440892098500626161694526672363281e-01,1.685581522596346420658774967193949123611673712730e-03,3.791618005396223123337762217488489113748073577881e-02,1.000000000000000020816681711721685132943093776703e-02
7.600000000000004529709940470638684928417205810547e-01,1.713604152332562444854824335038756544236093759537e-03,3.792743005315695609125370424408174585551023483276e-02,1.000000000000000020816681711721685132943093776703e-02
7.700000000000004618527782440651208162307739257812e-01,1.741776205443881309423148628923172509530559182167e-03,3.793883245782547763980119270854629576206207275391e-02,1.000000000000000020816681711721685132943093776703e-02
7.800000000000004707345624410663731396198272705078e-01,1.770097832930652608299237904532219545217230916023e-03,3.795038737583392857155573096861189696937799453735e-02,1.000000000000000020816681711721685132943093776703e-02
7.900000000000004796163466380676254630088806152344e-01,1.798569186727258734440071386018189514288678765297e-03,3.796209491581317707620257806411245837807655334473e-02,1.000000000000000020816681711721685132943093776703e-02
8.000000000000004884981308350688777863979339599609e-01,1.827190419703184336847057167574348568450659513474e-03,3.797395518715790396768738901300821453332901000977e-02,1.000000000000000020816681711721685132943093776703e-02
8.100000000000004973799150320701301097869873046875e-01,1.855961685664076019769419545468736032489687204361e-03,3.798596830002569368911480296446825377643108367920e-02,1.000000000000000020816681711721685132943093776703e-02
8.200000000000005062616992290713824331760406494141e-01,1.884883139352790115683689009529189206659793853760e-03,3.799813436533609062317751181581115815788507461548e-02,1.000000000000000020816681711721685132943093776703e-02
8.300000000000005151434834260726347565650939941406e-01,1.913954936450427881527991402776933682616800069809e-03,3.801045349476962070811580929330375511199235916138e-02,1.000000000000000020816681711721685132943093776703e-02
8.400000000000005240252676230738870799541473388672e-01,1.943177233577360286595481220217607187805697321892e-03,3.802292580076680611478323612573149148374795913696e-02,1.000000000000000020816681711721685132943093776703e-02
8.500000000000005329070518200751394033432006835938e-01,1.972550188294240440523008572881735744886100292206e-03,3.803555139652713829034880177459854166954755783081e-02,1.000000000000000020816681711721685132943093776703e-02
8.600000000000005417888360170763917267322540283203e-01,2.002073959103004528736757805518209352158010005951e-03,3.804833039600804406310530225709953811019659042358e-02,1.000000000000000020816681711721685132943093776703e-02
8.700000000000005506706202140776440501213073730469e-01,2.031748705447861905876161259243417589459568262100e-03,3.806126291392383093059592624740616884082555770874e-02,1.000000000000000020816681711721685132943093776703e-02
8.800000000000005595524044110788963735103607177734e-01,2.061574587716272395632177705238063936121761798859e-03,3.807434906574458377548353382735513150691986083984e-02,1.000000000000000020816681711721685132943093776703e-02
8.900000000000005684341886080801486968994140625000e-01,2.091551767239911447521238940794319205451756715775e-03,3.808758896769506852031383914436446502804756164551e-02,1.000000000000000020816681711721685132943093776703e-02
