time,u0,u1,tau
0.000000000000000000000000000000000000000000000000e+00,3.750000000000000555111512312578270211815834045410e-02,3.750000000000000555111512312578270211815834045410e-02,1.000000000000000020816681711721685132943093776703e-02
1.000000000000000020816681711721685132943093776703e-02,3.751929015489986751763495931299985386431217193604e-02,3.751085095166284411050128255737945437431335449219e-02,1.000000000000000020816681711721685132943093776703e-02
2.000000000000000041633363423443370265886187553406e-02,3.753872995832667480708977336689713411033153533936e-02,3.752184475362335680515002422907855361700057983398e-02,1.000000000000000020816681711721685132943093776703e-02
2.999999999999999888977697537484345957636833190918e-02,3.755831960133754893194080182183824945241212844849e-02,3.753298149286580370764809799766226205974817276001e-02,1.000000000000000020816681711721685132943093776703e-02
4.000000000000000083266726846886740531772375106812e-02,3.757805927590297800922058968353667296469211578369e-02,3.754426125699050070805284917696553748100996017456e-02,1.000000000000000020816681711721685132943093776703e-02
5.000000000000000277555756156289135105907917022705e-02,3.759794917490891230649197041202569380402565002441e-02,3.755568413421267459639807384519372135400772094727e-02,1.000000000000000020816681711721685132943093776703e-02
6.000000000000000471844785465691529680043458938599e-02,3.761798949215881815444362246125820092856884002686e-02,3.756725021336126957294254680164158344268798828125e-02,1.000000000000000020816681711721685132943093776703e-02
7.000000000000000666133814775093924254179000854492e-02,3.763818042237575267616733754039159975945949554443e-02,3.757895958387775375841854952341236639767885208130e-02,1.000000000000000020816681711721685132943093776703e-02
8.000000000000000166533453693773481063544750213623e-02,3.765852216120438994417796152447408530861139297485e-02,3.759081233581485631534135904985305387526750564575e-02,1.000000000000000020816681711721685132943093776703e-02
8.999999999999999666933092612453037872910499572754e-02,3.767901490521308183190285490127280354499816894531e-02,3.760280855983532538600044858867477159947156906128e-02,1.000000000000000020816681711721685132943093776703e-02
9.999999999999999167332731531132594682276248931885e-02,3.769965885189585641512621805304661393165588378906e-02,3.761494834721065133598116858593130018562078475952e-02,1.000000000000000020816681711721685132943093776703e-02
1.099999999999999866773237044981215149164199829102e-01,3.772045419967445106790293607446074020117521286011e-02,3.762723178981974142542910044539894443005323410034e-02,1.000000000000000020816681711721685132943093776703e-02
1.199999999999999816813200936849170830100774765015e-01,3.774140114790031086400290405435953289270401000977e-02,3.763965898014758754142050634072802495211362838745e-02,1.000000000000000020816681711721685132943093776703e-02
1.299999999999999766853164828717126511037349700928e-01,3.776249989685658697835535235753923188894987106323e-02,3.765223001128392005254497121313761454075574874878e-02,1.000000000000000020816681711721685132943093776703e-02
1.399999999999999855671006798729649744927883148193e-01,3.778375064776011427181146018483559601008892059326e-02,3.766494497692180615233681351128325331956148147583e-02,1.000000000000000020816681711721685132943093776703e-02
1.499999999999999944488848768742172978818416595459e-01,3.780515360276338887590696913321153260767459869385e-02,3.767780397135624820270649593112466391175985336304e-02,1.000000000000000020816681711721685132943093776703e-02
1.600000000000000033306690738754696212708950042725e-01,3.782670896495652496094308503415959421545267105103e-02,3.769080708948274738290251661965157836675643920898e-02,1.000000000000000020816681711721685132943093776703e-02
1.700000000000000122124532708767219446599483489990e-01,3.784841693836919762627957197764771990478038787842e-02,3.770395442679582570510987693523929920047521591187e-02,1.000000000000000020816681711721685132943093776703e-02
1.800000000000000210942374678779742680490016937256e-01,3.787027772797259966841565415052173193544149398804e-02,3.771724607938756884673026092968939337879419326782e-02,1.000000000000000020816681711721685132943093776703e-02
1.900000000000000299760216648792265914380550384521e-01,3.789229153968136365460139813876594416797161102295e-02,3.773068214394607877704146403630147688090801239014e-02,1.000000000000000020816681711721685132943093776703e-02
2.000000000000000388578058618804789148271083831787e-01,3.791445858035547011866128741530701518058776855469e-02,3.774426271775395413943243738685850985348224639893e-02,1.000000000000000020816681711721685132943093776703e-02
2.100000000000000477395900588817312382161617279053e-01,3.793677905780216269571170073504617903381586074829e-02,3.775798789868671512248710087078507058322429656982e-02,1.000000000000000020816681711721685132943093776703e-02
2.200000000000000566213742558829835616052150726318e-01,3.795925318077784937909058271543472073972225189209e-02,3.777185778521121445328034837984887417405843734741e-02,1.000000000000000020816681711721685132943093776703e-02
2.300000000000000655031584528842358849942684173584e-01,3.798188115898998296060540269536431878805160522461e-02,3.778587247638399981841672570226364769041538238525e-02,1.000000000000000020816681711721685132943093776703e-02
2.400000000000000743849426498854882083833217620850e-01,3.800466320309893453188720968682901002466678619385e-02,3.780003207184968322396301232402038294821977615356e-02,1.000000000000000020816681711721685132943093776703e-02
2.500000000000000555111512312578270211815834045410e-01,3.802759952471984616906297560490202158689498901367e-02,3.781433667183926178312347587961994577199220657349e-02,1.000000000000000020816681711721685132943093776703e-02
2.600000000000000643929354282590793445706367492676e-01,3.805069033642451137300355412662611342966556549072e-02,3.782878637716841768723341488112055230885744094849e-02,1.000000000000000020816681711721685132943093776703e-02
2.700000000000000732747196252603316679596900939941e-01,3.807393585174318612063260047762014437466859817505e-02,3.784338128923579042117708581827173475176095962524e-02,1.000000000000000020816681711721685132943093776703e-02
2.800000000000000821565038222615839913487434387207e-01,3.809733628516643461070501075482752639800310134888e-02,3.785812151002120040654830290804966352880001068115e-02,1.000000000000000020816681711721685132943093776703e-02
2.900000000000000910382880192628363147377967834473e-01,3.812089185214694725400974562035116832703351974487e-02,3.787300714208388652259884565864922478795051574707e-02,1.000000000000000020816681711721685132943093776703e-02
3.000000000000000999200722162640886381268501281738e-01,3.814460276910135172467875008806004188954830169678e-02,3.788803828856069505492953908287745434790849685669e-02,1.000000000000000020816681711721685132943093776703e-02
3.100000000000001088018564132653409615159034729004e-01,3.816846925341199625592025768128223717212677001953e-02,3.790321505316421313303010265371995046734809875488e-02,1.000000000000000020816681711721685132943093776703e-02
3.200000000000001176836406102665932849049568176270e-01,3.819249152342875375243380631218315102159976959229e-02,3.791853754018092992339461488882079720497131347656e-02,1.000000000000000020816681711721685132943093776703e-02
3.300000000000001265654248072678456082940101623535e-01,3.821666979847077733056792681054503191262483596802e-02,3.793400585446932149480403495545033365488052368164e-02,1.000000000000000020816681711721685132943093776703e-02
3.400000000000001354472090042690979316830635070801e-01,3.824100429882828361405344708146003540605306625366e-02,3.794962010145792874471482036824454553425312042236e-02,1.000000000000000020816681711721685132943093776703e-02
3.500000000000001443289932012703502550721168518066e-01,3.826549524576428745747946891242463607341051101685e-02,3.796538038714340757007192905803094618022441864014e-02,1.000000000000000020816681711721685132943093776703e-02
3.600000000000001532107773982716025784611701965332e-01,3.829014286151635748645105650211917236447334289551e-02,3.798128681808853740475839799728419166058301925659e-02,1.000000000000000020816681711721685132943093776703e-02
3.700000000000001620925615952728549018502235412598e-01,3.831494736929833000438350154581712558865547180176e-02,3.799733950142022281815101791835331823676824569702e-02,1.000000000000000020816681711721685132943093776703e-02
3.800000000000001709743457922741072252392768859863e-01,3.833990899330204371597830004247953183948993682861e-02,3.801353854482743266363087286663358099758625030518e-02,1.000000000000000020816681711721685132943093776703e-02
3.900000000000001798561299892753595486283302307129e-01,3.836502795869903281733570565847912803292274475098e-02,3.802988405655914616598778366096667014062404632568e-02,1.000000000000000020816681711721685132943093776703e-02
4.000000000000001887379141862766118720173835754395e-01,3.839030449164222702496118699855287559330463409424e-02,3.804637614542223655877961618898552842438220977783e-02,1.000000000000000020816681711721685132943093776703e-02
4.100000000000001976196983832778641954064369201660e-01,3.841573881926763772698407706229772884398698806763e-02,3.806301492077936166058549360968754626810550689697e-02,1.000000000000000020816681711721685132943093776703e-02
4.200000000000002065014825802791165187954902648926e-01,3.844133116969603719548231879343802575021982192993e-02,3.807980049254679200121387339095235802233219146729e-02,1.000000000000000020816681711721685132943093776703e-02
4.300000000000002153832667772803688421845436096191e-01,3.846708177203459616544378718572261277586221694946e-02,3.809673297119221119233500871814612764865159988403e-02,1.000000000000000020816681711721685132943093776703e-02
4.400000000000002242650509742816211655735969543457e-01,3.849299085637856304709103483219223562628030776978e-02,3.811381246773251629811340990272583439946174621582e-02,1.000000000000000020816681711721685132943093776703e-02
4.500000000000002331468351712828734889626502990723e-01,3.851905865381288068816090230939153116196393966675e-02,3.813103909373155575579517062578815966844558715820e-02,1.000000000000000020816681711721685132943093776703e-02
4.600000000000002420286193682841258123517036437988e-01,3.854528539641382395286584028326615225523710250854e-02,3.814841296129784647961358245993324089795351028442e-02,1.000000000000000020816681711721685132943093776703e-02
4.700000000000002509104035652853781357407569885254e-01,3.857167131725060260638571207891800440847873687744e-02,3.816593418308226320911913376221491489559412002563e-02,1.000000000000000020816681711721685132943093776703e-02
4.800000000000002597921877622866304591298103332520e-01,3.859821665038697807714740406481723766773939132690e-02,3.818360287227570010193389293817745056003332138062e-02,1.000000000000000020816681711721685132943093776703e-02
4.900000000000002686739719592878827825188636779785e-01,3.862492163088284552463491650087235029786825180054e-02,3.820141914260669069314246826252201572060585021973e-02,1.000000000000000020816681711721685132943093776703e-02
5.000000000000002220446049250313080847263336181641e-01,3.865178649479581590719945438650029245764017105103e-02,3.821938310833900703800125597808801103383302688599e-02,1.000000000000000020816681711721685132943093776703e-02
5.100000000000002309263891220325604081153869628906e-01,3.867881147918278417208171049423981457948684692383e-02,3.823749488426921722128426495146413799375295639038e-02,1.000000000000000020816681711721685132943093776703e-02
5.200000000000002398081733190338127315044403076172e-01,3.870599682210148356764634058890806045383214950562e-02,3.825575458572422898884113351414271164685487747192e-02,1.000000000000000020816681711721685132943093776703e-02
5.300000000000002486899575160350650548934936523438e-01,3.873334276261203995561643864675716031342744827271e-02,3.827416232855877092911001113861857447773218154907e-02,1.000000000000000020816681711721685132943093776703e-02
5.400000000000002575717417130363173782825469970703e-01,3.876084954077847755105068472403218038380146026611e-02,3.829271822915288059352434402171638794243335723877e-02,1.000000000000000020816681711721685132943093776703e-02
5.500000000000002664535259100375697016716003417969e-01,3.878851739767026629568391626889933831989765167236e-02,3.831142240440931628908671768840576987713575363159e-02,1.000000000000000020816681711721685132943093776703e-02
5.600000000000002753353101070388220250606536865234e-01,3.881634657536382065901037208277557510882616043091e-02,3.833027497175098274873050741007318720221519470215e-02,1.000000000000000020816681711721685132943093776703e-02
5.700000000000002842170943040400743484497070312500e-01,3.884433731694398456157912846720137167721986770630e-02,3.834927604911828047384858564328169450163841247559e-02,1.000000000000000020816681711721685132943093776703e-02
5.800000000000002930988785010413266718387603759766e-01,3.887248986650553017607734318517032079398632049561e-02,3.836842575496646201571593337575905025005340576172e-02,1.000000000000000020816681711721685132943093776703e-02
5.900000000000003019806626980425789952278137207031e-01,3.890080446915462897283788379354518838226795196533e-02,3.838772420826291886797321240010205656290054321289e-02,1.000000000000000020816681711721685132943093776703e-02
6.000000000000003108624468950438313186168670654297e-01,3.892928137101029500977134034656046424061059951782e-02,3.840717152848446835911033758748089894652366638184e-02,1.000000000000000020816681711721685132943093776703e-02
6.100000000000003197442310920450836420059204101562e-01,3.895792081920584903897974982101004570722579956055e-02,3.842676783561458503379881790351646486669778823853e-02,1.000000000000000020816681711721685132943093776703e-02
6.200000000000003286260152890463359653949737548828e-01,3.898672306189035485779470491252141073346138000488e-02,3.844651325014059040086067398078739643096923828125e-02,1.000000000000000020816681711721685132943093776703e-02
6.300000000000003375077994860475882887840270996094e-01,3.901568834823002096534594329568790271878242492676e-02,3.846640789305084268123735569133714307099580764771e-02,1.000000000000000020816681711721685132943093776703e-02
6.400000000000003463895836830488406121730804443359e-01,3.904481692840962997470555251311452593654394149780e-02,3.848645188583186410591352455412561539560556411743e-02,1.000000000000000020816681711721685132943093776703e-02
6.500000000000003552713678800500929355621337890625e-01,3.907410905363393333056265532832185272127389907837e-02,3.850664535046544045826522051356732845306396484375e-02,1.000000000000000020816681711721685132943093776703e-02
6.600000000000003641531520770513452589511871337891e-01,3.910356497612903214911028726419317536056041717529e-02,3.852698840942569979972631699638441205024719238281e-02,1.000000000000000020816681711721685132943093776703e-02
6.700000000000003730349362740525975823402404785156e-01,3.913318494914375111903837023419328033924102783203e-02,3.854748118567612180651593689617584459483623504639e-02,1.000000000000000020816681711721685132943093776703e-02
6.800000000000003819167204710538499057292938232422e-01,3.916296922695099158584497445190208964049816131592e-02,3.856812380266656792304758027967181988060474395752e-02,1.000000000000000020816681711721685132943093776703e-02
6.900000000000003907985046680551022291183471679688e-01,3.919291806484909851393538815500505734235048294067e-02,3.858891638433021437082359739179082680493593215942e-02,1.000000000000000020816681711721685132943093776703e-02
7.000000000000003996802888650563545525074005126953e-01,3.922303171916317193756995607145654503256082534790e-02,3.860985905508049903511746947515348438173532485962e-02,1.000000000000000020816681711721685132943093776703e-02
7.100000000000004085620730620576068758964538574219e-01,3.925331044724640616738753351455670781433582305908e-02,3.863095193980799202382314661008422262966632843018e-02,1.000000000000000020816681711721685132943093776703e-02
7.200000000000004174438572590588591992855072021484e-01,3.928375450748139430245942094188649207353591918945e-02,3.865219516387728010409219336906971875578165054321e-02,1.000000000000000020816681711721685132943093776703e-02
7.300000000000004263256414560601115226745605468750e-01,3.931436415928141192566158679255750030279159545898e-02,3.867358885312376093335018367724842391908168792725e-02,1.000000000000000020816681711721685132943093776703e-02
7.400000000000004352074256530613638460636138916016e-01,3.934513966309172161572860204614698886871337890625e-02,3.869513313385044422920699958012846764177083969116e-02,1.000000000000000020816681711721685132943093776703e-02
7.500000000000004440892098500626161694526672363281e-01,3.937608128039082888705024743103422224521636962891e-02,3.871682813282469048932199484625016339123249053955e-02,1.000000000000000020816681711721685132943093776703e-02
7.600000000000004529709940470638684928417205810547e-01,3.940718927369173812946812063273682724684476852417e-02,3.873867397727492889458744684816338121891021728516e-02,1.000000000000000020816681711721685132943093776703e-02
7.700000000000004618527782440651208162307739257812e-01,3.943846390654320854807224350224714726209640502930e-02,3.876067079488731970116077718557789921760559082031e-02,1.000000000000000020816681711721685132943093776703e-02
7.800000000000004707345624410663731396198272705078e-01,3.946990544353098234742205363545508589595556259155e-02,3.878281871380240275470896449405699968338012695312e-02,1.000000000000000020816681711721685132943093776703e-02
7.900000000000004796163466380676254630088806152344e-01,3.950151415027898516019178032365744002163410186768e-02,3.880511786261169049350172599588404409587383270264e-02,1.000000000000000020816681711721685132943093776703e-02
8.000000000000004884981308350688777863979339599609e-01,3.953329029345055423139143613298074342310428619385e-02,3.882756837035423319592908342201553750783205032349e-02,1.000000000000000020816681711721685132943093776703e-02
8.100000000000004973799150320701301097869873046875e-01,3.956523414074961803033048113320546690374612808228e-02,3.885017036651315647244331330512068234384059906006e-02,1.000000000000000020816681711721685132943093776703e-02
8.200000000000005062616992290713824331760406494141e-01,3.959734596092187586258148712659021839499473571777e-02,3.887292398101211549077405038588040042668581008911e-02,1.000000000000000020816681711721685132943093776703e-02
8.300000000000005151434834260726347565650939941406e-01,3.962962602375595666526209015501081012189388275146e-02,3.889582934421178389561291055542824324220418930054e-02,1.000000000000000020816681711721685132943093776703e-02
8.400000000000005240252676230738870799541473388672e-01,3.966207460008458474121084691432770341634750366211e-02,3.891888658690622476710174737490888219326734542847e-02,1.000000000000000020816681711721685132943093776703e-02
8.500000000000005329070518200751394033432006835938e-01,3.969469196178569692090576381815480999648571014404e-02,3.894209584031929627379042813117848709225654602051e-02,1.000000000000000020816681711721685132943093776703e-02
8.600000000000005417888360170763917267322540283203e-01,3.972747838178358054106453778331342618912458419800e-02,3.896545723610096711997385909853619523346424102783e-02,1.000000000000000020816681711721685132943093776703e-02
8.700000000000005506706202140776440501213073730469e-01,3.976043413404998366766918138637265656143426895142e-02,3.898897090632360423745339517154206987470388412476e-02,1.000000000000000020816681711721685132943093776703e-02
8.800000000000005595524044110788963735103607177734e-01,3.979355949360519756341503239127632696181535720825e-02,3.901263698347824659951044168337830342352390289307e-02,1.000000000000000020816681711721685132943093776703e-02
8.900000000000005684341886080801486968994140625000e-01,3.982685473651915303294757109142665285617113113403e-02,3.903645560047079576815320933746988885104656219482e-02,1.000000000000000020816681711721685132943093776703e-02
