time,u0,u1,tau
0.000000000000000000000000000000000000000000000000e+00,-7.499999999999999722444243843710864894092082977295e-02,-1.249999999999999722444243843710864894092082977295e-02,1.000000000000000020816681711721685132943093776703e-02
1.000000000000000020816681711721685132943093776703e-02,-7.500791426286157470570969962864182889461517333984e-02,-1.251267928794113151735878375347965629771351814270e-02,1.000000000000000020816681711721685132943093776703e-02
2.000000000000000041633363423443370265886187553406e-02,-7.501588423105637337684470367094036191701889038086e-02,-1.252540236583859004082519561507069738581776618958e-02,1.000000000000000020816681711721685132943093776703e-02
2.999999999999999888977697537484345957636833190918e-02,-7.502391003379425826746995653593330644071102142334e-02,-1.253816930764363110628600850304792402312159538269e-02,1.000000000000000020816681711721685132943093776703e-02
4.000000000000000083266726846886740531772375106812e-02,-7.503199180056695227758467581224977038800716400146e-02,-1.255098018742655148483056137820312869735062122345e-02,1.000000000000000020816681711721685132943093776703e-02
5.000000000000000277555756156289135105907917022705e-02,-7.504012966114828597774533136544050648808479309082e-02,-1.256383507937616425542692866201832657679915428162e-02,1.000000000000000020816681711721685132943093776703e-02
6.000000000000000471844785465691529680043458938599e-02,-7.504832374559440577588276255482924170792102813721e-02,-1.257673405779927318370869926411614869721233844757e-02,1.000000000000000020816681711721685132943093776703e-02
7.000000000000000666133814775093924254179000854492e-02,-7.505657418424392657296806419253698550164699554443e-02,-1.258967719712013148825047181844638544134795665741e-02,1.000000000000000020816681711721685132943093776703e-02
8.000000000000000166533453693773481063544750213623e-02,-7.506488110771816768540531938924686983227729797363e-02,-1.260266457187989540267292198905124678276479244232e-02,1.000000000000000020816681711721685132943093776703e-02
8.999999999999999666933092612453037872910499572754e-02,-7.507324464692129162290967769877170212566852569580e-02,-1.261569625673606559468353793818096164613962173462e-02,1.000000000000000020816681711721685132943093776703e-02
9.999999999999999167332731531132594682276248931885e-02,-7.508166493304051225532447233490529470145702362061e-02,-1.262877232646192685039387981760228285565972328186e-02,1.000000000000000020816681711721685132943093776703e-02
1.099999999999999866773237044981215149164199829102e-01,-7.509014209754627522386272175936028361320495605469e-02,-1.264189285594597561557250742225733119994401931763e-02,1.000000000000000020816681711721685132943093776703e-02
1.199999999999999816813200936849170830100774765015e-01,-7.509867627219238284119740001187892630696296691895e-02,-1.265505792019133365911010002946568420156836509705e-02,1.000000000000000020816681711721685132943093776703e-02
1.299999999999999766853164828717126511037349700928e-01,-7.510726758901618838049074611262767575681209564209e-02,-1.266826759431516520593152819174065371043980121613e-02,1.000000000000000020816681711721685132943093776703e-02
1.399999999999999855671006798729649744927883148193e-01,-7.511591618033873485327234220676473341882228851318e-02,-1.268152195354807325322621380792043055407702922821e-02,1.000000000000000020816681711721685132943093776703e-02
1.499999999999999944488848768742172978818416595459e-01,-7.512462217876492154289280733792111277580261230469e-02,-1.269482107323349068250806226387794595211744308472e-02,1.000000000000000020816681711721685132943093776703e-02
1.600000000000000033306690738754696212708950042725e-01,-7.513338571718364278240187559276819229125976562500e-02,-1.270816502882706963695191859642363851889967918396e-02,1.000000000000000020816681711721685132943093776703e-02
1.700000000000000122124532708767219446599483489990e-01,-7.514220692876789897685085861667175777256488800049e-02,-1.272155389589604834732483595871599391102790832520e-02,1.000000000000000020816681711721685132943093776703e-02
1.800000000000000210942374678779742680490016937256e-01,-7.515108594697496313674633938717306591570377349854e-02,-1.273498775011862489681124799290046212263405323029e-02,1.000000000000000020816681711721685132943093776703e-02
1.900000000000000299760216648792265914380550384521e-01,-7.516002290554647802256482691518613137304782867432e-02,-1.274846666728330843443295350425614742562174797058e-02,1.000000000000000020816681711721685132943093776703e-02
2.000000000000000388578058618804789148271083831787e-01,-7.516901793850862267820645001847879029810428619385e-02,-1.276199072328826691902214918172830948606133460999e-02,1.000000000000000020816681711721685132943093776703e-02
2.100000000000000477395900588817312382161617279053e-01,-7.517807118017216794214618857949972152709960937500e-02,-1.277555999414066965902403438803958124481141567230e-02,1.000000000000000020816681711721685132943093776703e-02
2.200000000000000566213742558829835616052150726318e-01,-7.518718276513262910309975950440275482833385467529e-02,-1.278917455595601250506465618173024267889559268951e-02,1.000000000000000020816681711721685132943093776703e-02
2.300000000000000655031584528842358849942684173584e-01,-7.519635282827033528896265579533064737915992736816e-02,-1.280283448495743957307180238558430573903024196625e-02,1.000000000000000020816681711721685132943093776703e-02
2.400000000000000743849426498854882083833217620850e-01,-7.520558150475055436690041688052588142454624176025e-02,-1.281653985747505629377851477102012722752988338470e-02,1.000000000000000020816681711721685132943093776703e-02
2.500000000000000555111512312578270211815834045410e-01,-7.521486893002356233228766768661444075405597686768e-02,-1.283029074994522858443879442802426638081669807434e-02,1.000000000000000020816681711721685132943093776703e-02
2.600000000000000643929354282590793445706367492676e-01,-7.522421523982472657543496552534634247422218322754e-02,-1.284408723890987508164940322785696480423212051392e-02,1.000000000000000020816681711721685132943093776703e-02
2.700000000000000732747196252603316679596900939941e-01,-7.523362057017461690389126260924967937171459197998e-02,-1.285792940101575417000123735533634317107498645782e-02,1.000000000000000020816681711721685132943093776703e-02
2.800000000000000821565038222615839913487434387207e-01,-7.524308505737901942023171386608737520873546600342e-02,-1.287181731301373192877246509624455939047038555145e-02,1.000000000000000020816681711721685132943093776703e-02
2.900000000000000910382880192628363147377967834473e-01,-7.525260883802906142214794726896798238158226013184e-02,-1.288575105175805181334514060154106118716299533844e-02,1.000000000000000020816681711721685132943093776703e-02
3.000000000000000999200722162640886381268501281738e-01,-7.526219204900122528023587165080243721604347229004e-02,-1.289973069420558351994010592989070573821663856506e-02,1.000000000000000020816681711721685132943093776703e-02
3.100000000000001088018564132653409615159034729004e-01,-7.527183482745743170472252359104459173977375030518e-02,-1.291375631741507358507536906699897372163832187653e-02,1.000000000000000020816681711721685132943093776703e-02
3.200000000000001176836406102665932849049568176270e-01,-7.528153731084505362325387523014796897768974304199e-02,-1.292782799854637863778972217687623924575746059418e-02,1.000000000000000020816681711721685132943093776703e-02
3.300000000000001265654248072678456082940101623535e-01,-7.529129963689698556983387334184953942894935607910e-02,-1.294194581485968997824897996906656771898269653320e-02,1.000000000000000020816681711721685132943093776703e-02
3.400000000000001354472090042690979316830635070801e-01,-7.530112194363167144040005496208323165774345397949e-02,-1.295610984371475295218179013545523048378527164459e-02,1.000000000000000020816681711721685132943093776703e-02
3.500000000000001443289932012703502550721168518066e-01,-7.531100436935310449282354738897993229329586029053e-02,-1.297032016257006897808068401900527533143758773804e-02,1.000000000000000020816681711721685132943093776703e-02
3.600000000000001532107773982716025784611701965332e-01,-7.532094705265088285806029944069450721144676208496e-02,-1.298457684898209410495617532887990819290280342102e-02,1.000000000000000020816681711721685132943093776703e-02
3.700000000000001620925615952728549018502235412598e-01,-7.533095013240020954015108145540580153465270996094e-02,-1.299887998060442716175000299472230835817754268646e-02,1.000000000000000020816681711721685132943093776703e-02
3.800000000000001709743457922741072252392768859863e-01,-7.534101374776189241622148529131663963198661804199e-02,-1.301322963518698576368404218328578281216323375702e-02,1.000000000000000020816681711721685132943093776703e-02
3.900000000000001798561299892753595486283302307129e-01,-7.535113803818234423648192432665382511913776397705e-02,-1.302762589057517191026835945422135409899055957794e-02,1.000000000000000020816681711721685132943093776703e-02
4.000000000000001887379141862766118720173835754395e-01,-7.536132314339359650201544127412489615380764007568e-02,-1.304206882470902890969188803182987612672150135040e-02,1.000000000000000020816681711721685132943093776703e-02
4.100000000000001976196983832778641954064369201660e-01,-7.537156920341325783141428473754785954952239990234e-02,-1.305655851562238789487224721597158350050449371338e-02,1.000000000000000020816681711721685132943093776703e-02
4.200000000000002065014825802791165187954902648926e-01,-7.538187635854451396077990921185119077563285827637e-02,-1.307109504144200566588818190894016879610717296600e-02,1.000000000000000020816681711721685132943093776703e-02
4.300000000000002153832667772803688421845436096191e-01,-7.539224474937608611035955163970356807112693786621e-02,-1.308567848038669038934767030468719894997775554657e-02,1.000000000000000020816681711721685132943093776703e-02
4.400000000000002242650509742816211655735969543457e-01,-7.540267451678220322897061578260036185383796691895e-02,-1.310030891076641688941517571720396517775952816010e-02,1.000000000000000020816681711721685132943093776703e-02
4.500000000000002331468351712828734889626502990723e-01,-7.541316580192258811621286440640687942504882812500e-02,-1.311498641098143326522151852486786083318293094635e-02,1.000000000000000020816681711721685132943093776703e-02
4.600000000000002420286193682841258123517036437988e-01,-7.542371874624234640016595676570432260632514953613e-02,-1.312971105952135709993289225394619279541075229645e-02,1.000000000000000020816681711721685132943093776703e-02
4.700000000000002509104035652853781357407569885254e-01,-7.543433349147198041517725641824654303491115570068e-02,-1.314448293496425952675554782445033197291195392609e-02,1.000000000000000020816681711721685132943093776703e-02
4.800000000000002597921877622866304591298103332520e-01,-7.544501017962727817955936870930599980056285858154e-02,-1.315930211597573888659962193514729733578860759735e-02,1.000000000000000020816681711721685132943093776703e-02
4.900000000000002686739719592878827825188636779785e-01,-7.545574895300927176222671732830349355936050415039e-02,-1.317416868130798571212558556453586788848042488098e-02,1.000000000000000020816681711721685132943093776703e-02
5.000000000000002220446049250313080847263336181641e-01,-7.546654995420414013818088960761087946593761444092e-02,-1.318908270979883903817331258778722258284687995911e-02,1.000000000000000020816681711721685132943093776703e-02
5.100000000000002309263891220325604081153869628906e-01,-7.547741332608315367735940526472404599189758300781e-02,-1.320404428037082363023291264880754170008003711700e-02,1.000000000000000020816681711721685132943093776703e-02
5.200000000000002398081733190338127315044403076172e-01,-7.548833921180256312233325388660887256264686584473e-02,-1.321905347203018894763904000910770264454185962677e-02,1.000000000000000020816681711721685132943093776703e-02
5.300000000000002486899575160350650548934936523438e-01,-7.549932775480348856600443241404718719422817230225e-02,-1.323411036386592555536001469818074838258326053619e-02,1.000000000000000020816681711721685132943093776703e-02
5.400000000000002575717417130363173782825469970703e-01,-7.551037909881185006266690606935299001634120941162e-02,-1.324921503504877806633999171026516705751419067383e-02,1.000000000000000020816681711721685132943093776703e-02
5.500000000000002664535259100375697016716003417969e-01,-7.552149338783824272791633802626165561378002166748e-02,-1.326436756483024594077679836345851072110235691071e-02,1.000000000000000020816681711721685132943093776703e-02
5.600000000000002753353101070388220250606536865234e-01,-7.553267076617778408298420345090562477707862854004e-02,-1.327956803254157040761196384437425876967608928680e-02,1.000000000000000020816681711721685132943093776703e-02
5.700000000000002842170943040400743484497070312500e-01,-7.554391137841003078801094261507387273013591766357e-02,-1.329481651759271444712684484557030373252928256989e-02,1.000000000000000020816681711721685132943093776703e-02
5.800000000000002930988785010413266718387603759766e-01,-7.555521536939882598638007493718760088086128234863e-02,-1.331011309947132889575094338852068176493048667908e-02,1.000000000000000020816681711721685132943093776703e-02
5.900000000000003019806626980425789952278137207031e-01,-7.556658288429216052684012083773268386721611022949e-02,-1.332545785774171161197632073935892549343407154083e-02,1.000000000000000020816681711721685132943093776703e-02
6.000000000000003108624468950438313186168670654297e-01,-7.557801406852199255226310015132185071706771850586e-02,-1.334085087204374582559029960293628391809761524200e-02,1.000000000000000020816681711721685132943093776703e-02
6.100000000000003197442310920450836420059204101562e-01,-7.558950906780413647734206961104064248502254486084e-02,-1.335629222209184195635511827049413113854825496674e-02,1.000000000000000020816681711721685132943093776703e-02
6.200000000000003286260152890463359653949737548828e-01,-7.560106802813808257734962126050959341228008270264e-02,-1.337178198767385514655892109203705331310629844666e-02,1.000000000000000020816681711721685132943093776703e-02
6.300000000000003375077994860475882887840270996094e-01,-7.561269109580680269910857305148965679109096527100e-02,-1.338732024864999932411979699509174679405987262726e-02,1.000000000000000020816681711721685132943093776703e-02
6.400000000000003463895836830488406121730804443359e-01,-7.562437841737658372753827507040114142000675201416e-02,-1.340290708495174565317853421220206655561923980713e-02,1.000000000000000020816681711721685132943093776703e-02
6.500000000000003552713678800500929355621337890625e-01,-7.563613013969684717441310795038589276373386383057e-02,-1.341854257658071057635051914758150815032422542572e-02,1.000000000000000020816681711721685132943093776703e-02
6.600000000000003641531520770513452589511871337891e-01,-7.564794640989995488933317346891271881759166717529e-02,-1.343422680360753518336025535973021760582923889160e-02,1.000000000000000020816681711721685132943093776703e-02
6.700000000000003730349362740525975823402404785156e-01,-7.565982737540095925954375388755579479038715362549e-02,-1.344995984617075070188807472959524602629244327545e-02,1.000000000000000020816681711721685132943093776703e-02
6.800000000000003819167204710538499057292938232422e-01,-7.567177318389745055426942599297035485506057739258e-02,-1.346574178447563184535251679108114331029355525970e-02,1.000000000000000020816681711721685132943093776703e-02
6.900000000000003907985046680551022291183471679688e-01,-7.568378398336929324674571262221434153616428375244e-02,-1.348157269879303975235185220071798539720475673676e-02,1.000000000000000020816681711721685132943093776703e-02
7.000000000000003996802888650563545525074005126953e-01,-7.569585992207843172518977326035383157432079315186e-02,-1.349745266945825278304127436967974063009023666382e-02,1.000000000000000020816681711721685132943093776703e-02
7.100000000000004085620730620576068758964538574219e-01,-7.570800114856862661483205556578468531370162963867e-02,-1.351338177686978517244575925815297523513436317444e-02,1.000000000000000020816681711721685132943093776703e-02
7.200000000000004174438572590588591992855072021484e-01,-7.572020781166520497773575471001095138490200042725e-02,-1.352936010148819701015554528567008674144744873047e-02,1.000000000000000020816681711721685132943093776703e-02
7.300000000000004263256414560601115226745605468750e-01,-7.573248006047483826819188834633678197860717773438e-02,-1.354538772383488687278685347337159328162670135498e-02,1.000000000000000020816681711721685132943093776703e-02
7.400000000000004352074256530613638460636138916016e-01,-7.574481804438525089917533250627457164227962493896e-02,-1.356146472449087578282522770223295083269476890564e-02,1.000000000000000020816681711721685132943093776703e-02
7.500000000000004440892098500626161694526672363281e-01,-7.575722191306497044216428093932336196303367614746e-02,-1.357759118409558075912801911044880398549139499664e-02,1.000000000000000020816681711721685132943093776703e-02
7.600000000000004529709940470638684928417205810547e-01,-7.576969181646302231580847319492022506892681121826e-02,-1.359376718334557448963906267636048141866922378540e-02,1.000000000000000020816681711721685132943093776703e-02
7.700000000000004618527782440651208162307739257812e-01,-7.578222790480867998574865396221866831183433532715e-02,-1.360999280299333112631554598692673607729375362396e-02,1.000000000000000020816681711721685132943093776703e-02
7.800000000000004707345624410663731396198272705078e-01,-7.579483032861113189770918552312650717794895172119e-02,-1.362626812384596340643749812215901329182088375092e-02,1.000000000000000020816681711721685132943093776703e-02
7.900000000000004796163466380676254630088806152344e-01,-7.580749923865920392174189146317075937986373901367e-02,-1.364259322676394416140599474829286918975412845612e-02,1.000000000000000020816681711721685132943093776703e-02
8.000000000000004884981308350688777863979339599609e-01,-7.582023478602104016310647693899227306246757507324e-02,-1.365896819265981915192398332692391704767942428589e-02,1.000000000000000020816681711721685132943093776703e-02
8.100000000000004973799150320701301097869873046875e-01,-7.583303712204376989536314113138359971344470977783e-02,-1.367539310249690429066582453287992393597960472107e-02,1.000000000000000020816681711721685132943093776703e-02
8.200000000000005062616992290713824331760406494141e-01,-7.584590639835320224904080532724037766456604003906e-02,-1.369186803728797419132945378805743530392646789551e-02,1.000000000000000020816681711721685132943093776703e-02
8.300000000000005151434834260726347565650939941406e-01,-7.585884276685345151136630192922893911600112915039e-02,-1.370839307809393510517725900399454985745251178741e-02,1.000000000000000020816681711721685132943093776703e-02
8.400000000000005240252676230738870799541473388672e-01,-7.587184637972663181493260253773769363760948181152e-02,-1.372496830602248397978915050998693914152681827545e-02,1.000000000000000020816681711721685132943093776703e-02
8.500000000000005329070518200751394033432006835938e-01,-7.588491738943245468185239133163122460246086120605e-02,-1.374159380222676057892172707397548947483301162720e-02,1.000000000000000020816681711721685132943093776703e-02
8.600000000000005417888360170763917267322540283203e-01,-7.589805594870790983463848533574491739273071289062e-02,-1.375826964790398225513268215536299976520240306854e-02,1.000000000000000020816681711721685132943093776703e-02
8.700000000000005506706202140776440501213073730469e-01,-7.591126221056686274035740780163905583322048187256e-02,-1.377499592429406831406435429698831285350024700165e-02,1.000000000000000020816681711721685132943093776703e-02
8.800000000000005595524044110788963735103607177734e-01,-7.592453632829967991035857721726642921566963195801e-02,-1.379177271267825050093946970264369156211614608765e-02,1.000000000000000020816681711721685132943093776703e-02
8.900000000000005684341886080801486968994140625000e-01,-7.593787845547282644442788068772642873227596282959e-02,-1.380860009437766960926907700013543944805860519409e-02,1.000000000000000020816681711721685132943093776703e-02
