time,u0,u1,tau
0.000000000000000000000000000000000000000000000000e+00,1.250000000000001110223024625156540423631668090820e-02,-3.749999999999999167332731531132594682276248931885e-02,1.000000000000000020816681711721685132943093776703e-02
1.000000000000000020816681711721685132943093776703e-02,1.248258627502588091751078991364920511841773986816e-02,-3.749585143144990723174103663950518239289522171021e-02,1.000000000000000020816681711721685132943093776703e-02
2.000000000000000041633363423443370265886187553406e-02,1.246503498880489890776601669131196103990077972412e-02,-3.749184896411542067262701038998784497380256652832e-02,1.000000000000000020816681711721685132943093776703e-02
2.999999999999999888977697537484345957636833190918e-02,1.244734609233240883729987302785957581363618373871e-02,-3.748799261902051316308615014349925331771373748779e-02,1.000000000000000020816681711721685132943093776703e-02
4.000000000000000083266726846886740531772375106812e-02,1.242951953582814746124274307703672093339264392853e-02,-3.748428241797215065833626113089849241077899932861e-02,1.000000000000000020816681711721685132943093776703e-02
5.000000000000000277555756156289135105907917022705e-02,1.241155526873451327152242384954661247320473194122e-02,-3.748071838356105411893537393552833236753940582275e-02,1.000000000000000020816681711721685132943093776703e-02
6.000000000000000471844785465691529680043458938599e-02,1.239345323971485432479333610444882651790976524353e-02,-3.747730053916244891132336647388001438230276107788e-02,1.000000000000000020816681711721685132943093776703e-02
7.000000000000000666133814775093924254179000854492e-02,1.237521339665175780508921121736420900560915470123e-02,-3.747402890893680726946968206902965903282165527344e-02,1.000000000000000020816681711721685132943093776703e-02
8.000000000000000166533453693773481063544750213623e-02,1.235683568664536213788096574717201292514801025391e-02,-3.747090351783055606205152798793278634548187255859e-02,1.000000000000000020816681711721685132943093776703e-02
8.999999999999999666933092612453037872910499572754e-02,1.233832005601167604302847990993541316129267215729e-02,-3.746792439157680537631378570040396880358457565308e-02,1.000000000000000020816681711721685132943093776703e-02
9.999999999999999167332731531132594682276248931885e-02,1.231966645028091493496713582089796545915305614471e-02,-3.746509155669601465188378597304108552634716033936e-02,1.000000000000000020816681711721685132943093776703e-02
1.099999999999999866773237044981215149164199829102e-01,1.230087481419584773123521159732263186015188694000e-02,-3.746240504049667963126779568483470939099788665771e-02,1.000000000000000020816681711721685132943093776703e-02
1.199999999999999816813200936849170830100774765015e-01,1.228194509171015233461865534536627819761633872986e-02,-3.745986487107600543255969682832073885947465896606e-02,1.000000000000000020816681711721685132943093776703e-02
1.299999999999999766853164828717126511037349700928e-01,1.226287722598679193197757086863930453546345233917e-02,-3.745747107732052411099843425290600862354040145874e-02,1.000000000000000020816681711721685132943093776703e-02
1.399999999999999855671006798729649744927883148193e-01,1.224367115939639649724313130718655884265899658203e-02,-3.745522368890675385388888685156416613608598709106e-02,1.000000000000000020816681711721685132943093776703e-02
1.499999999999999944488848768742172978818416595459e-01,1.222432683351566164164925254453919478692114353180e-02,-3.745312273630178878658369967524777166545391082764e-02,1.000000000000000020816681711721685132943093776703e-02
1.600000000000000033306690738754696212708950042725e-01,1.220484418912575613758164649880200158804655075073e-02,-3.745116825076391653404073167621390894055366516113e-02,1.000000000000000020816681711721685132943093776703e-02
1.700000000000000122124532708767219446599483489990e-01,1.218522316621074505493815820500458357855677604675e-02,-3.744936026434319414901708000797952990978956222534e-02,1.000000000000000020816681711721685132943093776703e-02
1.800000000000000210942374678779742680490016937256e-01,1.216546370395602504055343473510220064781606197357e-02,-3.744769880988201710136920041804842185229063034058e-02,1.000000000000000020816681711721685132943093776703e-02
1.900000000000000299760216648792265914380550384521e-01,1.214556574074676827124097400201208074577152729034e-02,-3.744618392101566745067131591895304154604673385620e-02,1.000000000000000020816681711721685132943093776703e-02
2.000000000000000388578058618804789148271083831787e-01,1.212552921416638548879340930852777091786265373230e-02,-3.744481563217286201883382545929634943604469299316e-02,1.000000000000000020816681711721685132943093776703e-02
2.100000000000000477395900588817312382161617279053e-01,1.210535406099499423915322182665477157570421695709e-02,-3.744359397857627280714609696588013321161270141602e-02,1.000000000000000020816681711721685132943093776703e-02
2.200000000000000566213742558829835616052150726318e-01,1.208504021720790445881821284501711488701403141022e-02,-3.744251899624302659663754866414819844067096710205e-02,1.000000000000000020816681711721685132943093776703e-02
2.300000000000000655031584528842358849942684173584e-01,1.206458761797411620431130785391360404901206493378e-02,-3.744159072198519067065092258417280390858650207520e-02,1.000000000000000020816681711721685132943093776703e-02
2.400000000000000743849426498854882083833217620850e-01,1.204399619765482432054426453760243020951747894287e-02,-3.744080919341026547630946197386947460472583770752e-02,1.000000000000000020816681711721685132943093776703e-02
2.500000000000000555111512312578270211815834045410e-01,1.202326588980194045641614053465673350729048252106e-02,-3.744017444892163565262066526884154882282018661499e-02,1.000000000000000020816681711721685132943093776703e-02
2.600000000000000643929354282590793445706367492676e-01,1.200239662715663069292304498958401381969451904297e-02,-3.743968652771901411968613615499634761363267898560e-02,1.000000000000000020816681711721685132943093776703e-02
2.700000000000000732747196252603316679596900939941e-01,1.198138834164785317126789010444554151035845279694e-02,-3.743934546979885841233581800224783364683389663696e-02,1.000000000000000020816681711721685132943093776703e-02
2.800000000000000821565038222615839913487434387207e-01,1.196024096439092174182228234258218435570597648621e-02,-3.743915131595480089155003611267602536827325820923e-02,1.000000000000000020816681711721685132943093776703e-02
2.900000000000000910382880192628363147377967834473e-01,1.193895442568607308253536558595442329533398151398e-02,-3.743910410777803732251811652531614527106285095215e-02,1.000000000000000020816681711721685132943093776703e-02
3.000000000000000999200722162640886381268501281738e-01,1.191752865501704769513047210693912347778677940369e-02,-3.743920388765770851380310091371939051896333694458e-02,1.000000000000000020816681711721685132943093776703e-02
3.100000000000001088018564132653409615159034729004e-01,1.189596358104968477908958135458306060172617435455e-02,-3.743945069878126113982474976182857062667608261108e-02,1.000000000000000020816681711721685132943093776703e-02
3.200000000000001176836406102665932849049568176270e-01,1.187425913163053098342558655531320255249738693237e-02,-3.743984458513480162444864163262536749243736267090e-02,1.000000000000000020816681711721685132943093776703e-02
3.300000000000001265654248072678456082940101623535e-01,1.185241523378545262790151326726117986254394054413e-02,-3.744038559150341533010575290063570719212293624878e-02,1.000000000000000020816681711721685132943093776703e-02
3.400000000000001354472090042690979316830635070801e-01,1.183043181371827221037840160988707793876528739929e-02,-3.744107376347150656359374920612026471644639968872e-02,1.000000000000000020816681711721685132943093776703e-02
3.500000000000001443289932012703502550721168518066e-01,1.180830879680940491416318849360322928987443447113e-02,-3.744190914742307613183314174420956987887620925903e-02,1.000000000000000020816681711721685132943093776703e-02
3.600000000000001532107773982716025784611701965332e-01,1.178604610761451593203830157108313869684934616089e-02,-3.744289179054201971430515527572424616664648056030e-02,1.000000000000000020816681711721685132943093776703e-02
3.700000000000001620925615952728549018502235412598e-01,1.176364366986318819863210904941297485493123531342e-02,-3.744402174081238460212617269462498370558023452759e-02,1.000000000000000020816681711721685132943093776703e-02
3.800000000000001709743457922741072252392768859863e-01,1.174110140645759879640674938627853407524526119232e-02,-3.744529904701861949822827568823413457721471786499e-02,1.000000000000000020816681711721685132943093776703e-02
3.900000000000001798561299892753595486283302307129e-01,1.171841923947120750471029282380186486989259719849e-02,-3.744672375874583125643368930468568578362464904785e-02,1.000000000000000020816681711721685132943093776703e-02
4.000000000000001887379141862766118720173835754395e-01,1.169559709014746269606366269044883665628731250763e-02,-3.744829592637997917048409135531983338296413421631e-02,1.000000000000000020816681711721685132943093776703e-02
4.100000000000001976196983832778641954064369201660e-01,1.167263487889851243661798463335799169726669788361e-02,-3.745001560110809007975163353876268956810235977173e-02,1.000000000000000020816681711721685132943093776703e-02
4.200000000000002065014825802791165187954902648926e-01,1.164953252530393466857017159554743557237088680267e-02,-3.745188283491843878048044302886410150676965713501e-02,1.000000000000000020816681711721685132943093776703e-02
4.300000000000002153832667772803688421845436096191e-01,1.162628994810946912730198476992882206104695796967e-02,-3.745389768060071455924031624817871488630771636963e-02,1.000000000000000020816681711721685132943093776703e-02
4.400000000000002242650509742816211655735969543457e-01,1.160290706522577354464775822862065979279577732086e-02,-3.745606019174617384859260482699028216302394866943e-02,1.000000000000000020816681711721685132943093776703e-02
4.500000000000002331468351712828734889626502990723e-01,1.157938379372718158688559952906871330924332141876e-02,-3.745837042274779288275610156233597081154584884644e-02,1.000000000000000020816681711721685132943093776703e-02
4.600000000000002420286193682841258123517036437988e-01,1.155572004985047640523987411143025383353233337402e-02,-3.746082842880036484212169511920365039259195327759e-02,1.000000000000000020816681711721685132943093776703e-02
4.700000000000002509104035652853781357407569885254e-01,1.153191574899368153361844946402925415895879268646e-02,-3.746343426590060393666092863895755726844072341919e-02,1.000000000000000020816681711721685132943093776703e-02
4.800000000000002597921877622866304591298103332520e-01,1.150797080571485178634993928881158353760838508606e-02,-3.746618799084724948933455834776395931839942932129e-02,1.000000000000000020816681711721685132943093776703e-02
4.900000000000002686739719592878827825188636779785e-01,1.148388513373088497260265938848533551208674907684e-02,-3.746908966124110756945597699996142182499170303345e-02,1.000000000000000020816681711721685132943093776703e-02
5.000000000000002220446049250313080847263336181641e-01,1.145965864591634575386791539131081663072109222412e-02,-3.747213933548512732052415685757296159863471984863e-02,1.000000000000000020816681711721685132943093776703e-02
5.100000000000002309263891220325604081153869628906e-01,1.143529125430229470561371840631181839853525161743e-02,-3.747533707278441483801145750476280227303504943848e-02,1.000000000000000020816681711721685132943093776703e-02
5.200000000000002398081733190338127315044403076172e-01,1.141078287007513472617326044655783334746956825256e-02,-3.747868293314627480272704929120664019137620925903e-02,1.000000000000000020816681711721685132943093776703e-02
5.300000000000002486899575160350650548934936523438e-01,1.138613340357546958869772169009593199007213115692e-02,-3.748217697738017578634739379594975616782903671265e-02,1.000000000000000020816681711721685132943093776703e-02
5.400000000000002575717417130363173782825469970703e-01,1.136134276429696943200298164811101742088794708252e-02,-3.748581926709777106809795554909214843064546585083e-02,1.000000000000000020816681711721685132943093776703e-02
5.500000000000002664535259100375697016716003417969e-01,1.133641086088525186392761412434992962516844272614e-02,-3.748960986471282924581416295950475614517927169800e-02,1.000000000000000020816681711721685132943093776703e-02
5.600000000000002753353101070388220250606536865234e-01,1.131133760113677347303173803538811625912785530090e-02,-3.749354883344120648036579268591594882309436798096e-02,1.000000000000000020816681711721685132943093776703e-02
5.700000000000002842170943040400743484497070312500e-01,1.128612289199773695280715202216015313751995563507e-02,-3.749763623730077016782402665739937219768762588501e-02,1.000000000000000020816681711721685132943093776703e-02
5.800000000000002930988785010413266718387603759766e-01,1.126076663956300169533442101510445354506373405457e-02,-3.750187214111131567273460518663341645151376724243e-02,1.000000000000000020816681711721685132943093776703e-02
5.900000000000003019806626980425789952278137207031e-01,1.123526874907501693634515049780020490288734436035e-02,-3.750625661049444142802755663979041855782270431519e-02,1.000000000000000020816681711721685132943093776703e-02
6.000000000000003108624468950438313186168670654297e-01,1.120962912492275490028426077060430543497204780579e-02,-3.751078971187345872939644664256775286048650741577e-02,1.000000000000000020816681711721685132943093776703e-02
6.100000000000003197442310920450836420059204101562e-01,1.118384767064066476205397293597343377768993377686e-02,-3.751547151247322520184468430670676752924919128418e-02,1.000000000000000020816681711721685132943093776703e-02
6.200000000000003286260152890463359653949737548828e-01,1.115792428890763528237517476782159064896404743195e-02,-3.752030208032000602180744408542523160576820373535e-02,1.000000000000000020816681711721685132943093776703e-02
6.300000000000003375077994860475882887840270996094e-01,1.113185888154596785148964244172020698897540569305e-02,-3.752528148424128656701626027825113851577043533325e-02,1.000000000000000020816681711721685132943093776703e-02
6.400000000000003463895836830488406121730804443359e-01,1.110565134952036688009702203316919622011482715607e-02,-3.753040979386558506636362153585650958120822906494e-02,1.000000000000000020816681711721685132943093776703e-02
6.500000000000003552713678800500929355621337890625e-01,1.107930159293693192501528699267510091885924339294e-02,-3.753568707962223055529804582874930929392576217651e-02,1.000000000000000020816681711721685132943093776703e-02
6.600000000000003641531520770513452589511871337891e-01,1.105280951104216889679943136570727801881730556488e-02,-3.754111341274114777011305932319373823702335357666e-02,1.000000000000000020816681711721685132943093776703e-02
6.700000000000003730349362740525975823402404785156e-01,1.102617500222201514514797082711083930917084217072e-02,-3.754668886525260734776665572098863776773214340210e-02,1.000000000000000020816681711721685132943093776703e-02
6.800000000000003819167204710538499057292938232422e-01,1.099939796400086974847987164594087516888976097107e-02,-3.755241350998694827012513997033238410949707031250e-02,1.000000000000000020816681711721685132943093776703e-02
6.900000000000003907985046680551022291183471679688e-01,1.097247829304063768129928746475343359634280204773e-02,-3.755828742057430030820697197668778244405984878540e-02,1.000000000000000020816681711721685132943093776703e-02
7.000000000000003996802888650563545525074005126953e-01,1.094541588513978612462462791654616012237966060638e-02,-3.756431067144428564974489859196182806044816970825e-02,1.000000000000000020816681711721685132943093776703e-02
7.100000000000004085620730620576068758964538574219e-01,1.091821063523241638892891103296278743073344230652e-02,-3.757048333782569277117246997477195691317319869995e-02,1.000000000000000020816681711721685132943093776703e-02
7.200000000000004174438572590588591992855072021484e-01,1.089086243738734104125054358291890821419656276703e-02,-3.757680549574613643182274813625554088503122329712e-02,1.000000000000000020816681711721685132943093776703e-02
7.300000000000004263256414560601115226745605468750e-01,1.086337118480717664481538520249159773811697959900e-02,-3.758327722203170379033920767142262775450944900513e-02,1.000000000000000020816681711721685132943093776703e-02
7.400000000000004352074256530613638460636138916016e-01,1.083573676982744690699966838565160287544131278992e-02,-3.758989859430657276551102086159517057240009307861e-02,1.000000000000000020816681711721685132943093776703e-02
7.500000000000004440892098500626161694526672363281e-01,1.080795908391569970508072628945228643715381622314e-02,-3.759666969099262345821443886961787939071655273438e-02,1.000000000000000020816681711721685132943093776703e-02
7.600000000000004529709940470638684928417205810547e-01,1.078003801767063278560510042325404356233775615692e-02,-3.760359059130900100109684558447042945772409439087e-02,1.000000000000000020816681711721685132943093776703e-02
7.700000000000004618527782440651208162307739257812e-01,1.075197346082123160682098017559837899170815944672e-02,-3.761066137527171310273033100202155765146017074585e-02,1.000000000000000020816681711721685132943093776703e-02
7.800000000000004707345624410663731396198272705078e-01,1.072376530222592452834540210915292846038937568665e-02,-3.761788212369315820282622553349938243627548217773e-02,1.000000000000000020816681711721685132943093776703e-02
7.900000000000004796163466380676254630088806152344e-01,1.069541342987173800083144925565648009069263935089e-02,-3.762525291818165362744963431396172381937503814697e-02,1.000000000000000020816681711721685132943093776703e-02
8.000000000000004884981308350688777863979339599609e-01,1.066691773087347951121106603977750637568533420563e-02,-3.763277384114094986644616369630966801196336746216e-02,1.000000000000000020816681711721685132943093776703e-02
8.100000000000004973799150320701301097869873046875e-01,1.063827809147291879321439722616560175083577632904e-02,-3.764044497576972403418693602361599914729595184326e-02,1.000000000000000020816681711721685132943093776703e-02
8.200000000000005062616992290713824331760406494141e-01,1.060949439703798465040041065776676987297832965851e-02,-3.764826640606103169695018095808336511254310607910e-02,1.000000000000000020816681711721685132943093776703e-02
8.300000000000005151434834260726347565650939941406e-01,1.058056653206197565697532780859546619467437267303e-02,-3.765623821680177951698453853168757632374763488770e-02,1.000000000000000020816681711721685132943093776703e-02
8.400000000000005240252676230738870799541473388672e-01,1.055149438016278473639886215096339583396911621094e-02,-3.766436049357214238542113093899388331919908523560e-02,1.000000000000000020816681711721685132943093776703e-02
8.500000000000005329070518200751394033432006835938e-01,1.052227782408213067888436142993668909184634685516e-02,-3.767263332274497361629173042274487670511007308960e-02,1.000000000000000020816681711721685132943093776703e-02
8.600000000000005417888360170763917267322540283203e-01,1.049291674568480006723980579863564344123005867004e-02,-3.768105679148520126275911934499163180589675903320e-02,1.000000000000000020816681711721685132943093776703e-02
8.700000000000005506706202140776440501213073730469e-01,1.046341102595790828466704169841250404715538024902e-02,-3.768963098774920361666573853653972037136554718018e-02,1.000000000000000020816681711721685132943093776703e-02
8.800000000000005595524044110788963735103607177734e-01,1.043376054501016746145491964625762193463742733002e-02,-3.769835600028415695250672001748171169310808181763e-02,1.000000000000000020816681711721685132943093776703e-02
8.900000000000005684341886080801486968994140625000e-01,1.040396518207116829946023983666236745193600654602e-02,-3.770723191862735551582730408881616313010454177856e-02,1.000000000000000020816681711721685132943093776703e-02
