time,u0,u1,tau
0.000000000000000000000000000000000000000000000000e+00,3.750000000000000555111512312578270211815834045410e-02,-2.499999999999999444888487687421729788184165954590e-02,1.000000000000000020816681711721685132943093776703e-02
1.000000000000000020816681711721685132943093776703e-02,3.748792231357397225499639148438291158527135848999e-02,-2.498809330190722780007384073996945517137646675110e-02,1.000000000000000020816681711721685132943093776703e-02
2.000000000000000041633363423443370265886187553406e-02,3.747575817760204208717311757936840876936912536621e-02,-2.497628186753569901057403512822929769754409790039e-02,1.000000000000000020816681711721685132943093776703e-02
2.999999999999999888977697537484345957636833190918e-02,3.746350763524407267990312675465247593820095062256e-02,-2.496456563524777211293681489223672542721033096313e-02,1.000000000000000020816681711721685132943093776703e-02
4.000000000000000083266726846886740531772375106812e-02,3.745117072921841372412643522693542763590812683105e-02,-2.495294454389574562158671255929220933467149734497e-02,1.000000000000000020816681711721685132943093776703e-02
5.000000000000000277555756156289135105907917022705e-02,3.743874750180140736910416876526142004877328872681e-02,-2.494141853282230703037214425421552732586860656738e-02,1.000000000000000020816681711721685132943093776703e-02
6.000000000000000471844785465691529680043458938599e-02,3.742623799482693719431480872117390390485525131226e-02,-2.492998754186097690177525976196193369105458259583e-02,1.000000000000000020816681711721685132943093776703e-02
7.000000000000000666133814775093924254179000854492e-02,3.741364224968594942577482242995756678283214569092e-02,-2.491865151133654254778093672939576208591461181641e-02,1.000000000000000020816681711721685132943093776703e-02
8.000000000000000166533453693773481063544750213623e-02,3.740096030732600884682881314802216365933418273926e-02,-2.490741038206548477185187095983565086498856544495e-02,1.000000000000000020816681711721685132943093776703e-02
8.999999999999999666933092612453037872910499572754e-02,3.738819220825086858672747780474310275167226791382e-02,-2.489626409535639420256281084675720194354653358459e-02,1.000000000000000020816681711721685132943093776703e-02
9.999999999999999167332731531132594682276248931885e-02,3.737533799252003297031166084707365371286869049072e-02,-2.488521259301037028000003203942469554021954536438e-02,1.000000000000000020816681711721685132943093776703e-02
1.099999999999999866773237044981215149164199829102e-01,3.736239769974833424548421589861391112208366394043e-02,-2.487425581732142718105471601575118256732821464539e-02,1.000000000000000020816681711721685132943093776703e-02
1.199999999999999816813200936849170830100774765015e-01,3.734937136910553012736357914036489091813564300537e-02,-2.486339371107687892803461693347344407811760902405e-02,1.000000000000000020816681711721685132943093776703e-02
1.299999999999999766853164828717126511037349700928e-01,3.733625903931588052575563096979749388992786407471e-02,-2.485262621755770715004096871325600659474730491638e-02,1.000000000000000020816681711721685132943093776703e-02
1.399999999999999855671006798729649744927883148193e-01,3.732306074865777284488288501052011270076036453247e-02,-2.484195328053894619158015188986610155552625656128e-02,1.000000000000000020816681711721685132943093776703e-02
1.499999999999999944488848768742172978818416595459e-01,3.730977653496334728311367712194623891264200210571e-02,-2.483137484429002311836498506636417005211114883423e-02,1.000000000000000020816681711721685132943093776703e-02
1.600000000000000033306690738754696212708950042725e-01,3.729640643561810131600964268727693706750869750977e-02,-2.482089085357511853979772808997950050979852676392e-02,1.000000000000000020816681711721685132943093776703e-02
1.700000000000000122124532708767219446599483489990e-01,3.728295048756053581273661734485358465462923049927e-02,-2.481050125365350661477137350630073342472314834595e-02,1.000000000000000020816681711721685132943093776703e-02
1.800000000000000210942374678779742680490016937256e-01,3.726940872728180809136944162673898972570896148682e-02,-2.480020599027987771023617824539542198181152343750e-02,1.000000000000000020816681711721685132943093776703e-02
1.900000000000000299760216648792265914380550384521e-01,3.725578119082537803530286169007013086229562759399e-02,-2.479000500970466105976619530792959267273545265198e-02,1.000000000000000020816681711721685132943093776703e-02
2.000000000000000388578058618804789148271083831787e-01,3.724206791378666808745023786286765243858098983765e-02,-2.477989825867434395267885349767311709001660346985e-02,1.000000000000000020816681711721685132943093776703e-02
2.100000000000000477395900588817312382161617279053e-01,3.722826893131274406112396491153049282729625701904e-02,-2.476988568443176316757892152509157313033938407898e-02,1.000000000000000020816681711721685132943093776703e-02
2.200000000000000566213742558829835616052150726318e-01,3.721438427810200288980979621555889025330543518066e-02,-2.475996723471640681424332797178067266941070556641e-02,1.000000000000000020816681711721685132943093776703e-02
2.300000000000000655031584528842358849942684173584e-01,3.720041398840384649915336012782063335180282592773e-02,-2.475014285776468841993036562598717864602804183960e-02,1.000000000000000020816681711721685132943093776703e-02
2.400000000000000743849426498854882083833217620850e-01,3.718635809601840425120400368541595526039600372314e-02,-2.474041250231023142402975167897238861769437789917e-02,1.000000000000000020816681711721685132943093776703e-02
2.500000000000000555111512312578270211815834045410e-01,3.717221663429622763308302069162891712039709091187e-02,-2.473077611758412244769012033884791890159249305725e-02,1.000000000000000020816681711721685132943093776703e-02
2.600000000000000643929354282590793445706367492676e-01,3.715798963613802657901530324124905746430158615112e-02,-2.472123365331518191068127521248243283480405807495e-02,1.000000000000000020816681711721685132943093776703e-02
2.700000000000000732747196252603316679596900939941e-01,3.714367713399437803678537761697953101247549057007e-02,-2.471178505973019301489301824403810314834117889404e-02,1.000000000000000020816681711721685132943093776703e-02
2.800000000000000821565038222615839913487434387207e-01,3.712927915986547616755686362921551335602998733521e-02,-2.470243028755415501396264232880639610812067985535e-02,1.000000000000000020816681711721685132943093776703e-02
2.900000000000000910382880192628363147377967834473e-01,3.711479574530087560679803004859422799199819564819e-02,-2.469316928801049831898595243728777859359979629517e-02,1.000000000000000020816681711721685132943093776703e-02
3.000000000000000999200722162640886381268501281738e-01,3.710022692139925554188906176023010630160570144653e-02,-2.468400201282131348201609455372818047180771827698e-02,1.000000000000000020816681711721685132943093776703e-02
3.100000000000001088018564132653409615159034729004e-01,3.708557271880818378972932691794994752854108810425e-02,-2.467492841420755589343372093935613520443439483643e-02,1.000000000000000020816681711721685132943093776703e-02
3.200000000000001176836406102665932849049568176270e-01,3.707083316772386699655683628407132346183061599731e-02,-2.466594844488924354042325148839154280722141265869e-02,1.000000000000000020816681711721685132943093776703e-02
3.300000000000001265654248072678456082940101623535e-01,3.705600829789097716560064554869313724339008331299e-02,-2.465706205808565476544913508405443280935287475586e-02,1.000000000000000020816681711721685132943093776703e-02
3.400000000000001354472090042690979316830635070801e-01,3.704109813860240879579421857670240569859743118286e-02,-2.464826920751550867749735118650278309360146522522e-02,1.000000000000000020816681711721685132943093776703e-02
3.500000000000001443289932012703502550721168518066e-01,3.702610271869909153164002191260806284844875335693e-02,-2.463956984739713168552910360631358344107866287231e-02,1.000000000000000020816681711721685132943093776703e-02
3.600000000000001532107773982716025784611701965332e-01,3.701102206656980281307411928537476342171430587769e-02,-2.463096393244863444027537013880646554753184318542e-02,1.000000000000000020816681711721685132943093776703e-02
3.700000000000001620925615952728549018502235412598e-01,3.699585621015099440311857392771344166249036788940e-02,-2.462245141788805755100888461583963362500071525574e-02,1.000000000000000020816681711721685132943093776703e-02
3.800000000000001709743457922741072252392768859863e-01,3.698060517692660503774604308091511484235525131226e-02,-2.461403225943351383286916700399160617962479591370e-02,1.000000000000000020816681711721685132943093776703e-02
3.900000000000001798561299892753595486283302307129e-01,3.696526899392790777021389203582657501101493835449e-02,-2.460570641330333749308145740997133543714880943298e-02,1.000000000000000020816681711721685132943093776703e-02
4.000000000000001887379141862766118720173835754395e-01,3.694984768773335731539830817382608074694871902466e-02,-2.459747383621620556160003445711481617763638496399e-02,1.000000000000000020816681711721685132943093776703e-02
4.100000000000001976196983832778641954064369201660e-01,3.693434128446843739412841500779904890805482864380e-02,-2.458933448539125238285762975465331692248582839966e-02,1.000000000000000020816681711721685132943093776703e-02
4.200000000000002065014825802791165187954902648926e-01,3.691874980980553583309600185202725697308778762817e-02,-2.458128831854819104640874627420998876914381980896e-02,1.000000000000000020816681711721685132943093776703e-02
4.300000000000002153832667772803688421845436096191e-01,3.690307328896379884808354177039291244000196456909e-02,-2.457333529390740012310345719015458598732948303223e-02,1.000000000000000020816681711721685132943093776703e-02
4.400000000000002242650509742816211655735969543457e-01,3.688731174670904083834344078240974340587854385376e-02,-2.456547537019002774849596448802913073450326919556e-02,1.000000000000000020816681711721685132943093776703e-02
4.500000000000002331468351712828734889626502990723e-01,3.687146520735361254761386362588382326066493988037e-02,-2.455770850661806795067754194406006718054413795471e-02,1.000000000000000020816681711721685132943093776703e-02
4.600000000000002420286193682841258123517036437988e-01,3.685553369475629698071017514848790597170591354370e-02,-2.455003466291443350866252615105622680857777595520e-02,1.000000000000000020816681711721685132943093776703e-02
4.700000000000002509104035652853781357407569885254e-01,3.683951723232224695347980514270602725446224212646e-02,-2.454245379930303228022125949792098253965377807617e-02,1.000000000000000020816681711721685132943093776703e-02
4.800000000000002597921877622866304591298103332520e-01,3.682341584300286713160588192295108456164598464966e-02,-2.453496587650880536579656165940832579508423805237e-02,1.000000000000000020816681711721685132943093776703e-02
4.900000000000002686739719592878827825188636779785e-01,3.680722954929576545834990497496619354933500289917e-02,-2.452757085575779302799581671479245414957404136658e-02,1.000000000000000020816681711721685132943093776703e-02
5.000000000000002220446049250313080847263336181641e-01,3.679095837324466988782489806908415630459785461426e-02,-2.452026869877715550827268486955290427431464195251e-02,1.000000000000000020816681711721685132943093776703e-02
5.100000000000002309263891220325604081153869628906e-01,3.677460233643937981273808190962881781160831451416e-02,-2.451305936779521466029052589874481782317161560059e-02,1.000000000000000020816681711721685132943093776703e-02
5.200000000000002398081733190338127315044403076172e-01,3.675816146001572443102745069154480006545782089233e-02,-2.450594282554147129715715891506988555192947387695e-02,1.000000000000000020816681711721685132943093776703e-02
5.300000000000002486899575160350650548934936523438e-01,3.674163576465551417360444474979885853826999664307e-02,-2.449891903524661559976571822971891378983855247498e-02,1.000000000000000020816681711721685132943093776703e-02
5.400000000000002575717417130363173782825469970703e-01,3.672502527058650600988443102323799394071102142334e-02,-2.449198796064253058624160530598601326346397399902e-02,1.000000000000000020816681711721685132943093776703e-02
5.500000000000002664535259100375697016716003417969e-01,3.670832999758238956999889524013269692659378051758e-02,-2.448514956596228517304858485204022144898772239685e-02,1.000000000000000020816681711721685132943093776703e-02
5.600000000000002753353101070388220250606536865234e-01,3.669154996496278020590153801094857044517993927002e-02,-2.447840381594012029720097700646874727681279182434e-02,1.000000000000000020816681711721685132943093776703e-02
5.700000000000002842170943040400743484497070312500e-01,3.667468519159319123579265919943281915038824081421e-02,-2.447175067581142116068804170936346054077148437500e-02,1.000000000000000020816681711721685132943093776703e-02
5.800000000000002930988785010413266718387603759766e-01,3.665773569588506169969477355152775999158620834351e-02,-2.446519011131269294434531502702157013118267059326e-02,1.000000000000000020816681711721685132943093776703e-02
5.900000000000003019806626980425789952278137207031e-01,3.664070149579576329834651460259919986128807067871e-02,-2.445872208868150876615032984773279167711734771729e-02,1.000000000000000020816681711721685132943093776703e-02
6.000000000000003108624468950438313186168670654297e-01,3.662358260882860733209653858466481324285268783569e-02,-2.445234657465646804785919243840908166021108627319e-02,1.000000000000000020816681711721685132943093776703e-02
6.100000000000003197442310920450836420059204101562e-01,3.660637905203288633426694786976440809667110443115e-02,-2.444606353647713059551449532591504976153373718262e-02,1.000000000000000020816681711721685132943093776703e-02
6.200000000000003286260152890463359653949737548828e-01,3.658909084200391570451671441333019174635410308838e-02,-2.443987294188395067995323017839837120845913887024e-02,1.000000000000000020816681711721685132943093776703e-02
6.300000000000003375077994860475882887840270996094e-01,3.657171799488308228109900710478541441261768341064e-02,-2.443377475911820417842079677939182147383689880371e-02,1.000000000000000020816681711721685132943093776703e-02
6.400000000000003463895836830488406121730804443359e-01,3.655426052635787903533071130368625745177268981934e-02,-2.442776895692189489950330028023017803207039833069e-02,1.000000000000000020816681711721685132943093776703e-02
6.500000000000003552713678800500929355621337890625e-01,3.653671845166198833831927572646236512809991836548e-02,-2.442185550453766784695375235969549976289272308350e-02,1.000000000000000020816681711721685132943093776703e-02
6.600000000000003641531520770513452589511871337891e-01,3.651909178557535828879565542592899873852729797363e-02,-2.441603437170870166683656066197727341204881668091e-02,1.000000000000000020816681711721685132943093776703e-02
6.700000000000003730349362740525975823402404785156e-01,3.650138054242426516315944695634243544191122055054e-02,-2.441030552867859415577811432740418240427970886230e-02,1.000000000000000020816681711721685132943093776703e-02
6.800000000000003819167204710538499057292938232422e-01,3.648358473608141749888744698182563297450542449951e-02,-2.440466894619124429977041756956168683245778083801e-02,1.000000000000000020816681711721685132943093776703e-02
6.900000000000003907985046680551022291183471679688e-01,3.646570437996605323904830697756551671773195266724e-02,-2.439912459549072043518691543795284815132617950439e-02,1.000000000000000020816681711721685132943093776703e-02
7.000000000000003996802888650563545525074005126953e-01,3.644773948704403687681718793101026676595211029053e-02,-2.439367244832112840979831958065915387123823165894e-02,1.000000000000000020816681711721685132943093776703e-02
7.100000000000004085620730620576068758964538574219e-01,3.642969006982799129445993457920849323272705078125e-02,-2.438831247692645198821281837808783166110515594482e-02,1.000000000000000020816681711721685132943093776703e-02
7.200000000000004174438572590588591992855072021484e-01,3.641155614037740878563553792446327861398458480835e-02,-2.438304465405040366565714293756172992289066314697e-02,1.000000000000000020816681711721685132943093776703e-02
7.300000000000004263256414560601115226745605468750e-01,3.639333771029878289438030947167135309427976608276e-02,-2.437786895293626160396982527345244307070970535278e-02,1.000000000000000020816681711721685132943093776703e-02
7.400000000000004352074256530613638460636138916016e-01,3.637503479074576107077376718734740279614925384521e-02,-2.437278534732669268980664867285668151453137397766e-02,1.000000000000000020816681711721685132943093776703e-02
7.500000000000004440892098500626161694526672363281e-01,3.635664739241927650992280973696324508637189865112e-02,-2.436779381146356518450524220043007517233490943909e-02,1.000000000000000020816681711721685132943093776703e-02
7.600000000000004529709940470638684928417205810547e-01,3.633817552556772162430931416565726976841688156128e-02,-2.436289432008776137394967520322097698226571083069e-02,1.000000000000000020816681711721685132943093776703e-02
7.700000000000004618527782440651208162307739257812e-01,3.631961919998711457724382967171550262719392776489e-02,-2.435808684843897981009419595466169994324445724487e-02,1.000000000000000020816681711721685132943093776703e-02
7.800000000000004707345624410663731396198272705078e-01,3.630097842502125887742536747282429132610559463501e-02,-2.435337137225552020525221053048881003633141517639e-02,1.000000000000000020816681711721685132943093776703e-02
7.900000000000004796163466380676254630088806152344e-01,3.628225320956194460686461411569325719028711318970e-02,-2.434874786777407179583221363827760796993970870972e-02,1.000000000000000020816681711721685132943093776703e-02
8.000000000000004884981308350688777863979339599609e-01,3.626344356204912189323152915676473639905452728271e-02,-2.434421631172948088939200772529147798195481300354e-02,1.000000000000000020816681711721685132943093776703e-02
8.100000000000004973799150320701301097869873046875e-01,3.624454949047112295446027019352186471223831176758e-02,-2.433977668135451494224597013271704781800508499146e-02,1.000000000000000020816681711721685132943093776703e-02
8.200000000000005062616992290713824331760406494141e-01,3.622557100236484944888459835965477395802736282349e-02,-2.433542895437961969817841634267097106203436851501e-02,1.000000000000000020816681711721685132943093776703e-02
8.300000000000005151434834260726347565650939941406e-01,3.620650810481600839763061117082543205469846725464e-02,-2.433117310903266591881610736436414299532771110535e-02,1.000000000000000020816681711721685132943093776703e-02
8.400000000000005240252676230738870799541473388672e-01,3.618736080445932729032776364874735008925199508667e-02,-2.432700912403868917510685321303753880783915519714e-02,1.000000000000000020816681711721685132943093776703e-02
8.500000000000005329070518200751394033432006835938e-01,3.616812910747878306860769725972204469144344329834e-02,-2.432293697861961576101030857444129651412367820740e-02,1.000000000000000020816681711721685132943093776703e-02
8.600000000000005417888360170763917267322540283203e-01,3.614881301960786580407258838931738864630460739136e-02,-2.431895665249397819884791260847123339772224426270e-02,1.000000000000000020816681711721685132943093776703e-02
8.700000000000005506706202140776440501213073730469e-01,3.612941254612981462068788118813245091587305068970e-02,-2.431506812587663768354673266003374010324478149414e-02,1.000000000000000020816681711721685132943093776703e-02
8.800000000000005595524044110788963735103607177734e-01,3.610992769187786749496282823201909195631742477417e-02,-2.431127137947847183241378843376878648996353149414e-02,1.000000000000000020816681711721685132943093776703e-02
8.900000000000005684341886080801486968994140625000e-01,3.609035846123555268949445462567382492125034332275e-02,-2.430756639450608325159208789045806042850017547607e-02,1.000000000000000020816681711721685132943093776703e-02
