time,u0,u1,tau
0.000000000000000000000000000000000000000000000000e+00,-1.249999999999999722444243843710864894092082977295e-02,5.000000000000001665334536937734810635447502136230e-02,1.000000000000000020816681711721685132943093776703e-02
1.000000000000000020816681711721685132943093776703e-02,-1.247459440376838708808282518702981178648769855499e-02,4.999642164371823072066547410940984264016151428223e-02,1.000000000000000020816681711721685132943093776703e-02
2.000000000000000041633363423443370265886187553406e-02,-1.244900512758795319001592361018992960453033447266e-02,4.999303773326746469507497749873436987400054931641e-02,1.000000000000000020816681711721685132943093776703e-02
2.999999999999999888977697537484345957636833190918e-02,-1.242323206713480919505254718160358606837689876556e-02,4.998984830663110584536568126168276648968458175659e-02,1.000000000000000020816681711721685132943093776703e-02
4.000000000000000083266726846886740531772375106812e-02,-1.239727511702741133414740204443660331889986991882e-02,4.998685340282450761950627793339663185179233551025e-02,1.000000000000000020816681711721685132943093776703e-02
5.000000000000000277555756156289135105907917022705e-02,-1.237113417082339600350238129067292902618646621704e-02,4.998405306189558638951808688943856395781040191650e-02,1.000000000000000020816681711721685132943093776703e-02
6.000000000000000471844785465691529680043458938599e-02,-1.234480912101643124145766705623827874660491943359e-02,4.998144732492542513524469427466101478785276412964e-02,1.000000000000000020816681711721685132943093776703e-02
7.000000000000000666133814775093924254179000854492e-02,-1.231829985903309769568192422184438328258693218231e-02,4.997903623402883549475816948870487976819276809692e-02,1.000000000000000020816681711721685132943093776703e-02
8.000000000000000166533453693773481063544750213623e-02,-1.229160627522976438619206618341195280663669109344e-02,4.997681983235488512029576213535619899630546569824e-02,1.000000000000000020816681711721685132943093776703e-02
8.999999999999999666933092612453037872910499572754e-02,-1.226472825888949569339558820502134039998054504395e-02,4.997479816408744585087831069358799140900373458862e-02,1.000000000000000020816681711721685132943093776703e-02
9.999999999999999167332731531132594682276248931885e-02,-1.223766569821896875447375663270577206276357173920e-02,4.997297127444566555709570820908993482589721679688e-02,1.000000000000000020816681711721685132943093776703e-02
1.099999999999999866773237044981215149164199829102e-01,-1.221041848034539953338217799228004878386855125427e-02,4.997133920968445386368017580025480128824710845947e-02,1.000000000000000020816681711721685132943093776703e-02
1.199999999999999816813200936849170830100774765015e-01,-1.218298649131349317698003176246857037767767906189e-02,4.996990201709494011650392053525138180702924728394e-02,1.000000000000000020816681711721685132943093776703e-02
1.299999999999999766853164828717126511037349700928e-01,-1.215536961608240304477668303206883138045668601990e-02,4.996865974500488277731946595849876757711172103882e-02,1.000000000000000020816681711721685132943093776703e-02
1.399999999999999855671006798729649744927883148193e-01,-1.212756773852271055536000687880004988983273506165e-02,4.996761244277909269628779043159738648682832717896e-02,1.000000000000000020816681711721685132943093776703e-02
1.499999999999999944488848768742172978818416595459e-01,-1.209958074141341023699514067857307964004576206207e-02,4.996676016081978699556742640197626315057277679443e-02,1.000000000000000020816681711721685132943093776703e-02
1.600000000000000033306690738754696212708950042725e-01,-1.207140850643891559490494813644545502029359340668e-02,4.996610295056697764737307920768216717988252639771e-02,1.000000000000000020816681711721685132943093776703e-02
1.700000000000000122124532708767219446599483489990e-01,-1.204305091418608406050871906245447462424635887146e-02,4.996564086449878372420130290265660732984542846680e-02,1.000000000000000020816681711721685132943093776703e-02
1.800000000000000210942374678779742680490016937256e-01,-1.201450784414124714483129707787156803533434867859e-02,4.996537395613174364905617608201282564550638198853e-02,1.000000000000000020816681711721685132943093776703e-02
1.900000000000000299760216648792265914380550384521e-01,-1.198577917468725793914696708952760673128068447113e-02,4.996530228002109969009936207839928101748228073120e-02,1.000000000000000020816681711721685132943093776703e-02
2.000000000000000388578058618804789148271083831787e-01,-1.195686478310055596285810253220915910787880420685e-02,4.996542589176106857751236134390637744218111038208e-02,1.000000000000000020816681711721685132943093776703e-02
2.100000000000000477395900588817312382161617279053e-01,-1.192776454554824588916162042551150079816579818726e-02,4.996574484798507048699534038860292639583349227905e-02,1.000000000000000020816681711721685132943093776703e-02
2.200000000000000566213742558829835616052150726318e-01,-1.189847833708518667905629229153419146314263343811e-02,4.996625920636594414547815290461585391312837600708e-02,1.000000000000000020816681711721685132943093776703e-02
2.300000000000000655031584528842358849942684173584e-01,-1.186900603165109806258481484064759570173919200897e-02,4.996696902561612724236184135406801942735910415649e-02,1.000000000000000020816681711721685132943093776703e-02
2.400000000000000743849426498854882083833217620850e-01,-1.183934750206768089786368847171615925617516040802e-02,4.996787436548782990186623464978765696287155151367e-02,1.000000000000000020816681711721685132943093776703e-02
2.500000000000000555111512312578270211815834045410e-01,-1.180950262003574967317742760997134610079228878021e-02,4.996897528677318039980193020710430573672056198120e-02,1.000000000000000020816681711721685132943093776703e-02
2.600000000000000643929354282590793445706367492676e-01,-1.177947125613238235630753081295551965013146400452e-02,4.997027185130432230808494864504609722644090652466e-02,1.000000000000000020816681711721685132943093776703e-02
2.700000000000000732747196252603316679596900939941e-01,-1.174925327980808065220230673730839043855667114258e-02,4.997176412195351857814529239476541988551616668701e-02,1.000000000000000020816681711721685132943093776703e-02
2.800000000000000821565038222615839913487434387207e-01,-1.171884855938394760788145987362440791912376880646e-02,4.997345216263321399097208086459431797266006469727e-02,1.000000000000000020816681711721685132943093776703e-02
2.900000000000000910382880192628363147377967834473e-01,-1.168825696204887389095805616534562432207167148590e-02,4.997533603829606985158306997618637979030609130859e-02,1.000000000000000020816681711721685132943093776703e-02
3.000000000000000999200722162640886381268501281738e-01,-1.165747835385674141539524839572550263255834579468e-02,4.997741581493499174460026779343024827539920806885e-02,1.000000000000000020816681711721685132943093776703e-02
3.100000000000001088018564132653409615159034729004e-01,-1.162651259972364604922123731967076309956610202789e-02,4.997969155958310177867431889353611040860414505005e-02,1.000000000000000020816681711721685132943093776703e-02
3.200000000000001176836406102665932849049568176270e-01,-1.159535956342511858752075681877613533288240432739e-02,4.998216334031371776980279264535056427121162414551e-02,1.000000000000000020816681711721685132943093776703e-02
3.300000000000001265654248072678456082940101623535e-01,-1.156401910759337695044912663888680981472134590149e-02,4.998483122624028385239114413707284256815910339355e-02,1.000000000000000020816681711721685132943093776703e-02
3.400000000000001354472090042690979316830635070801e-01,-1.153249109371457838124630512766088941134512424469e-02,4.998769528751629415141977119674265850335359573364e-02,1.000000000000000020816681711721685132943093776703e-02
3.500000000000001443289932012703502550721168518066e-01,-1.150077538212609419565612967062406823970377445221e-02,4.999075559533517482124764796935778576880693435669e-02,1.000000000000000020816681711721685132943093776703e-02
3.600000000000001532107773982716025784611701965332e-01,-1.146887183201379320496293701125978259369730949402e-02,4.999401222193014526773424677230650559067726135254e-02,1.000000000000000020816681711721685132943093776703e-02
3.700000000000001620925615952728549018502235412598e-01,-1.143678030140933901681599138555611716583371162415e-02,4.999746524057405161478584432188654318451881408691e-02,1.000000000000000020816681711721685132943093776703e-02
3.800000000000001709743457922741072252392768859863e-01,-1.140450064718749774439476851739527774043381214142e-02,5.000111472557919323200792405259562656283378601074e-02,1.000000000000000020816681711721685132943093776703e-02
3.900000000000001798561299892753595486283302307129e-01,-1.137203272506347000170290328924238565377891063690e-02,5.000496075229708681231244327136664651334285736084e-02,1.000000000000000020816681711721685132943093776703e-02
4.000000000000001887379141862766118720173835754395e-01,-1.133937638959022289886213741283427225425839424133e-02,5.000900339711823044952510031180281657725572586060e-02,1.000000000000000020816681711721685132943093776703e-02
4.100000000000001976196983832778641954064369201660e-01,-1.130653149415584111936450284474631189368665218353e-02,5.001324273747183996041698605949932243674993515015e-02,1.000000000000000020816681711721685132943093776703e-02
4.200000000000002065014825802791165187954902648926e-01,-1.127349789098089360983578899322310462594032287598e-02,5.001767885182556439005452375567983835935592651367e-02,1.000000000000000020816681711721685132943093776703e-02
4.300000000000002153832667772803688421845436096191e-01,-1.124027543111580547396943785543044214136898517609e-02,5.002231181968513212821036972854926716536283493042e-02,1.000000000000000020816681711721685132943093776703e-02
4.400000000000002242650509742816211655735969543457e-01,-1.120686396443825241786562685319950105622410774231e-02,5.002714172159403865913773756801674608141183853149e-02,1.000000000000000020816681711721685132943093776703e-02
4.500000000000002331468351712828734889626502990723e-01,-1.117326333965056039954077959919231943786144256592e-02,5.003216863913315104461787541367812082171440124512e-02,1.000000000000000020816681711721685132943093776703e-02
4.600000000000002420286193682841258123517036437988e-01,-1.113947340427712436039531240794531186111271381378e-02,5.003739265492030546811363933557004202157258987427e-02,1.000000000000000020816681711721685132943093776703e-02
4.700000000000002509104035652853781357407569885254e-01,-1.110549400466183389557528471414116211235523223877e-02,5.004281385260987702334745108601055108010768890381e-02,1.000000000000000020816681711721685132943093776703e-02
4.800000000000002597921877622866304591298103332520e-01,-1.107132498596551627156880925895166001282632350922e-02,5.004843231689234256398535194421128835529088973999e-02,1.000000000000000020816681711721685132943093776703e-02
4.900000000000002686739719592878827825188636779785e-01,-1.103696619216338811741984216041601030156016349792e-02,5.005424813349377416438201748860592488199472427368e-02,1.000000000000000020816681711721685132943093776703e-02
5.000000000000002220446049250313080847263336181641e-01,-1.100241746604252619790020872869718004949390888214e-02,5.006026138917532564143186846195021644234657287598e-02,1.000000000000000020816681711721685132943093776703e-02
5.100000000000002309263891220325604081153869628906e-01,-1.096767864919934165612858123495243489742279052734e-02,5.006647217173271213752627772919367998838424682617e-02,1.000000000000000020816681711721685132943093776703e-02
5.200000000000002398081733190338127315044403076172e-01,-1.093274958203707680759464437869610264897346496582e-02,5.007288056999562725346564207029587123543024063110e-02,1.000000000000000020816681711721685132943093776703e-02
5.300000000000002486899575160350650548934936523438e-01,-1.089763010376330540363021270877652568742632865906e-02,5.007948667382715324247755006581428460776805877686e-02,1.000000000000000020816681711721685132943093776703e-02
5.400000000000002575717417130363173782825469970703e-01,-1.086232005238745544628553574284524074755609035492e-02,5.008629057412313650976543044635036494582891464233e-02,1.000000000000000020816681711721685132943093776703e-02
5.500000000000002664535259100375697016716003417969e-01,-1.082681926471833373792907906363325309939682483673e-02,5.009329236281152841758768090585363097488880157471e-02,1.000000000000000020816681711721685132943093776703e-02
5.600000000000002753353101070388220250606536865234e-01,-1.079112757636166777808206518329825485125184059143e-02,5.010049213285171221254898910046904347836971282959e-02,1.000000000000000020816681711721685132943093776703e-02
5.700000000000002842170943040400743484497070312500e-01,-1.075524482171766500748777417584278737194836139679e-02,5.010788997823379525842213411124248523265123367310e-02,1.000000000000000020816681711721685132943093776703e-02
5.800000000000002930988785010413266718387603759766e-01,-1.071917083397857552162779626314659253694117069244e-02,5.011548599397785963560636446345597505569458007812e-02,1.000000000000000020816681711721685132943093776703e-02
5.900000000000003019806626980425789952278137207031e-01,-1.068290544512627213147304416906990809366106987000e-02,5.012328027613321274058577614596288185566663742065e-02,1.000000000000000020816681711721685132943093776703e-02
6.000000000000003108624468950438313186168670654297e-01,-1.064644848592984430202257328801351832225918769836e-02,5.013127292177756849644865155823936220258474349976e-02,1.000000000000000020816681711721685132943093776703e-02
6.100000000000003197442310920450836420059204101562e-01,-1.060979978594319729501282978390008793212473392487e-02,5.013946402901623550230070236466417554765939712524e-02,1.000000000000000020816681711721685132943093776703e-02
6.200000000000003286260152890463359653949737548828e-01,-1.057295917350267212830861041084062890149652957916e-02,5.014785369698126354931488890542823355644941329956e-02,1.000000000000000020816681711721685132943093776703e-02
6.300000000000003375077994860475882887840270996094e-01,-1.053592647572467247418792624102934496477246284485e-02,5.015644202583055544231172007130226120352745056152e-02,1.000000000000000020816681711721685132943093776703e-02
6.400000000000003463895836830488406121730804443359e-01,-1.049870151850330370069119823028813698329031467438e-02,5.016522911674694412687003364226256962865591049194e-02,1.000000000000000020816681711721685132943093776703e-02
6.500000000000003552713678800500929355621337890625e-01,-1.046128412650802752548173657487495802342891693115e-02,5.017421507193726287754387271888845134526491165161e-02,1.000000000000000020816681711721685132943093776703e-02
6.600000000000003641531520770513452589511871337891e-01,-1.042367412318132360860012397552054608240723609924e-02,5.018339999463135997492813089593255426734685897827e-02,1.000000000000000020816681711721685132943093776703e-02
6.700000000000003730349362740525975823402404785156e-01,-1.038587133073637022717683464634319534525275230408e-02,5.019278398908109256604248571420612279325723648071e-02,1.000000000000000020816681711721685132943093776703e-02
6.800000000000003819167204710538499057292938232422e-01,-1.034787557015473015431528125418481067754328250885e-02,5.020236716055930664692752429800748359411954879761e-02,1.000000000000000020816681711721685132943093776703e-02
6.900000000000003907985046680551022291183471679688e-01,-1.030968666118405041576266967240371741354465484619e-02,5.021214961535875459519573382749513257294893264771e-02,1.000000000000000020816681711721685132943093776703e-02
7.000000000000003996802888650563545525074005126953e-01,-1.027130442233577592436866154912422643974423408508e-02,5.022213146079100576368858810383244417607784271240e-02,1.000000000000000020816681711721685132943093776703e-02
7.100000000000004085620730620576068758964538574219e-01,-1.023272867088287352288489273632876574993133544922e-02,5.023231280518530850187630676373373717069625854492e-02,1.000000000000000020816681711721685132943093776703e-02
7.200000000000004174438572590588591992855072021484e-01,-1.019395922285756990455229953340676729567348957062e-02,5.024269375788745217725761449401034042239189147949e-02,1.000000000000000020816681711721685132943093776703e-02
7.300000000000004263256414560601115226745605468750e-01,-1.015499589304909647258234883793193148449063301086e-02,5.025327442925855980782046117383288219571113586426e-02,1.000000000000000020816681711721685132943093776703e-02
7.400000000000004352074256530613638460636138916016e-01,-1.011583849500145328159650404131753020919859409332e-02,5.026405493067386681671493420253682415932416915894e-02,1.000000000000000020816681711721685132943093776703e-02
7.500000000000004440892098500626161694526672363281e-01,-1.007648684101117644851264287808589870110154151917e-02,5.027503537452147897024445910574286244809627532959e-02,1.000000000000000020816681711721685132943093776703e-02
7.600000000000004529709940470638684928417205810547e-01,-1.003694074212512638011318699682306032627820968628e-02,5.028621587420107480470576888365030754357576370239e-02,1.000000000000000020816681711721685132943093776703e-02
7.700000000000004618527782440651208162307739257812e-01,-9.997200008138279470060183484747540205717086791992e-03,5.029759654412259417544106554487370885908603668213e-02,1.000000000000000020816681711721685132943093776703e-02
7.800000000000004707345624410663731396198272705078e-01,-9.957264447591537143145146160350122954696416854858e-03,5.030917749970488517252675819690921343863010406494e-02,1.000000000000000020816681711721685132943093776703e-02
7.900000000000004796163466380676254630088806152344e-01,-9.917133867769541838432800773261988069862127304077e-03,5.032095885737433021978048941491579171270132064819e-02,1.000000000000000020816681711721685132943093776703e-02
8.000000000000004884981308350688777863979339599609e-01,-9.876808074698508604916113995386695023626089096069e-03,5.033294073456342360151083425989781972020864486694e-02,1.000000000000000020816681711721685132943093776703e-02
8.100000000000004973799150320701301097869873046875e-01,-9.836286873144072309682606203296018065884709358215e-03,5.034512324970932817258528757520252838730812072754e-02,1.000000000000000020816681711721685132943093776703e-02
8.200000000000005062616992290713824331760406494141e-01,-9.795570066609131376633712307011592201888561248779e-03,5.035750652225239043513482783964718692004680633545e-02,1.000000000000000020816681711721685132943093776703e-02
8.300000000000005151434834260726347565650939941406e-01,-9.754657457331721015503234184507164172828197479248e-03,5.037009067263462785968286539173277560621500015259e-02,1.000000000000000020816681711721685132943093776703e-02
8.400000000000005240252676230738870799541473388672e-01,-9.713548846282888185599269093017937848344445228577e-03,5.038287582229818845069857502494414802640676498413e-02,1.000000000000000020816681711721685132943093776703e-02
8.500000000000005329070518200751394033432006835938e-01,-9.672244033164576967886993941192486090585589408875e-03,5.039586209368375480099899732522317208349704742432e-02,1.000000000000000020816681711721685132943093776703e-02
8.600000000000005417888360170763917267322540283203e-01,-9.630742816407531284306209329315606737509369850159e-03,5.040904961022894814615114000844187103211879730225e-02,1.000000000000000020816681711721685132943093776703e-02
8.700000000000005506706202140776440501213073730469e-01,-9.589044993169206290706263473566650645807385444641e-03,5.042243849636666996882894409282016567885875701904e-02,1.000000000000000020816681711721685132943093776703e-02
8.800000000000005595524044110788963735103607177734e-01,-9.547150359331688443398356014313321793451905250549e-03,5.043602887752340890870073053520172834396362304688e-02,1.000000000000000020816681711721685132943093776703e-02
8.900000000000005684341886080801486968994140625000e-01,-9.505058709499634647666077569283515913411974906921e-03,5.044982088011755461121055077455821447074413299561e-02,1.000000000000000020816681711721685132943093776703e-02
