time,u0,u1,tau
0.000000000000000000000000000000000000000000000000e+00,-3.749999999999999167332731531132594682276248931885e-02,5.000000000000001665334536937734810635447502136230e-02,1.000000000000000020816681711721685132943093776703e-02
1.000000000000000020816681711721685132943093776703e-02,-3.747209587399602526147646130993962287902832031250e-02,4.999095232952152634275932996388291940093040466309e-02,1.000000000000000020816681711721685132943093776703e-02
2.000000000000000041633363423443370265886187553406e-02,-3.744401533595390074715680839290143921971321105957e-02,4.998209441582459472419586177238670643419027328491e-02,1.000000000000000020816681711721685132943093776703e-02
2.999999999999999888977697537484345957636833190918e-02,-3.741575833105998533101299585723609197884798049927e-02,4.997342625269039079194399732841702643781900405884e-02,1.000000000000000020816681711721685132943093776703e-02
4.000000000000000083266726846886740531772375106812e-02,-3.738732480358596815817051606245513539761304855347e-02,4.996494783493833635734659992522210814058780670166e-02,1.000000000000000020816681711721685132943093776703e-02
5.000000000000000277555756156289135105907917022705e-02,-3.735871469688636231643030782834102865308523178101e-02,4.995665915842734811080916301762044895440340042114e-02,1.000000000000000020816681711721685132943093776703e-02
6.000000000000000471844785465691529680043458938599e-02,-3.732992795339601377335725373995956033468246459961e-02,4.994856022005703805044518617251014802604913711548e-02,1.000000000000000020816681711721685132943093776703e-02
7.000000000000000666133814775093924254179000854492e-02,-3.730096451462765194673210089604253880679607391357e-02,4.994065101776892084961545492660661693662405014038e-02,1.000000000000000020816681711721685132943093776703e-02
8.000000000000000166533453693773481063544750213623e-02,-3.727182432116942639721557384291372727602720260620e-02,4.993293155054758652999780110803840216249227523804e-02,1.000000000000000020816681711721685132943093776703e-02
8.999999999999999666933092612453037872910499572754e-02,-3.724250731268247821548200704455666709691286087036e-02,4.992540181842185925686905534348625224083662033081e-02,1.000000000000000020816681711721685132943093776703e-02
9.999999999999999167332731531132594682276248931885e-02,-3.721301342789851140935297735268250107765197753906e-02,4.991806182246592837881138393640867434442043304443e-02,1.000000000000000020816681711721685132943093776703e-02
1.099999999999999866773237044981215149164199829102e-01,-3.718334260461740592429435992016806267201900482178e-02,4.991091156480045865073691402358235791325569152832e-02,1.000000000000000020816681711721685132943093776703e-02
1.199999999999999816813200936849170830100774765015e-01,-3.715349477970483066391338411449396517127752304077e-02,4.990395104859369351801845482441422063857316970825e-02,1.000000000000000020816681711721685132943093776703e-02
1.299999999999999766853164828717126511037349700928e-01,-3.712346988908987038824349724563944619148969650269e-02,4.989718027806253758393850716856832150369882583618e-02,1.000000000000000020816681711721685132943093776703e-02
1.399999999999999855671006798729649744927883148193e-01,-3.709326786776267342871094001566234510391950607300e-02,4.989059925847359050488094567299413029104471206665e-02,1.000000000000000020816681711721685132943093776703e-02
1.499999999999999944488848768742172978818416595459e-01,-3.706288864977211328088912978273583576083183288574e-02,4.988420799614419476331050873341155238449573516846e-02,1.000000000000000020816681711721685132943093776703e-02
1.600000000000000033306690738754696212708950042725e-01,-3.703233216822346407504085163964191451668739318848e-02,4.987800649844346262407057679411082062870264053345e-02,1.000000000000000020816681711721685132943093776703e-02
1.700000000000000122124532708767219446599483489990e-01,-3.700159835527611074112996902840677648782730102539e-02,4.987199477379324064063581545269698835909366607666e-02,1.000000000000000020816681711721685132943093776703e-02
1.800000000000000210942374678779742680490016937256e-01,-3.697068714214124529604532654047943651676177978516e-02,4.986617283166912273362214591543306596577167510986e-02,1.000000000000000020816681711721685132943093776703e-02
1.900000000000000299760216648792265914380550384521e-01,-3.693959845907959088640026834582386072725057601929e-02,4.986054068260136612478206075138587038964033126831e-02,1.000000000000000020816681711721685132943093776703e-02
2.000000000000000388578058618804789148271083831787e-01,-3.690833223539915358690777225092460867017507553101e-02,4.985509833817585584325726699717051815241575241089e-02,1.000000000000000020816681711721685132943093776703e-02
2.100000000000000477395900588817312382161617279053e-01,-3.687688839945296725986167984956409782171249389648e-02,4.984984581103499984289229018941114190965890884399e-02,1.000000000000000020816681711721685132943093776703e-02
2.200000000000000566213742558829835616052150726318e-01,-3.684526687863688004798135011697013396769762039185e-02,4.984478311487863799733588621165836229920387268066e-02,1.000000000000000020816681711721685132943093776703e-02
2.300000000000000655031584528842358849942684173584e-01,-3.681346759938732698946850518950668629258871078491e-02,4.983991026446489558399122188347973860800266265869e-02,1.000000000000000020816681711721685132943093776703e-02
2.400000000000000743849426498854882083833217620850e-01,-3.678149048717913732753359568050655070692300796509e-02,4.983522727561105064575386336400697473436594009399e-02,1.000000000000000020816681711721685132943093776703e-02
2.500000000000000555111512312578270211815834045410e-01,-3.674933546652336263660387771778914611786603927612e-02,4.983073416519435971938634111211285926401615142822e-02,1.000000000000000020816681711721685132943093776703e-02
2.600000000000000643929354282590793445706367492676e-01,-3.671700246096509800963758607394993305206298828125e-02,4.982643095115288356389271484658820554614067077637e-02,1.000000000000000020816681711721685132943093776703e-02
2.700000000000000732747196252603316679596900939941e-01,-3.668449139308133100101372292556334286928176879883e-02,4.982231765248626431663581115572014823555946350098e-02,1.000000000000000020816681711721685132943093776703e-02
2.800000000000000821565038222615839913487434387207e-01,-3.665180218447880444720965442684246227145195007324e-02,4.981839428925648877166665329241368453949689865112e-02,1.000000000000000020816681711721685132943093776703e-02
2.900000000000000910382880192628363147377967834473e-01,-3.661893475579190010416041900498385075479745864868e-02,4.981466088258865859694779487654159311205148696899e-02,1.000000000000000020816681711721685132943093776703e-02
3.000000000000000999200722162640886381268501281738e-01,-3.658588902668052228461803565551235806196928024292e-02,4.981111745467171891821323015392408706247806549072e-02,1.000000000000000020816681711721685132943093776703e-02
3.100000000000001088018564132653409615159034729004e-01,-3.655266491582801618998033177376782987266778945923e-02,4.980776402875914526946488081193820107728242874146e-02,1.000000000000000020816681711721685132943093776703e-02
3.200000000000001176836406102665932849049568176270e-01,-3.651926234093907236433196317193505819886922836304e-02,4.980460062916965136015079451681231148540973663330e-02,1.000000000000000020816681711721685132943093776703e-02
3.300000000000001265654248072678456082940101623535e-01,-3.648568121873768665963666535390075296163558959961e-02,4.980162728128784827008601610032201278954744338989e-02,1.000000000000000020816681711721685132943093776703e-02
3.400000000000001354472090042690979316830635070801e-01,-3.645192146496508550645998525396862532943487167358e-02,4.979884401156489670547955483925761654973030090332e-02,1.000000000000000020816681711721685132943093776703e-02
3.500000000000001443289932012703502550721168518066e-01,-3.641798299437769975694934032617311459034681320190e-02,4.979625084751913149938573610597813967615365982056e-02,1.000000000000000020816681711721685132943093776703e-02
3.600000000000001532107773982716025784611701965332e-01,-3.638386572074516628338969326250662561506032943726e-02,4.979384781773665835657993739005178213119506835938e-02,1.000000000000000020816681711721685132943093776703e-02
3.700000000000001620925615952728549018502235412598e-01,-3.634956955684828100450189936054812278598546981812e-02,4.979163495187195059843432431989640463143587112427e-02,1.000000000000000020816681711721685132943093776703e-02
3.800000000000001709743457922741072252392768859863e-01,-3.631509441447704211736180468506063334643840789795e-02,4.978961228064840427443016324104974046349525451660e-02,1.000000000000000020816681711721685132943093776703e-02
3.900000000000001798561299892753595486283302307129e-01,-3.628044020442865863484982469344686251133680343628e-02,4.978777983585887939588232597998285200446844100952e-02,1.000000000000000020816681711721685132943093776703e-02
4.000000000000001887379141862766118720173835754395e-01,-3.624560683650558667867613849011831916868686676025e-02,4.978613765036621341408817897900007665157318115234e-02,1.000000000000000020816681711721685132943093776703e-02
4.100000000000001976196983832778641954064369201660e-01,-3.621059421951357965019369089532119687646627426147e-02,4.978468575810374163737037633836735039949417114258e-02,1.000000000000000020816681711721685132943093776703e-02
4.200000000000002065014825802791165187954902648926e-01,-3.617540226125975227899900232841901015490293502808e-02,4.978342419407575519807451769338513258844614028931e-02,1.000000000000000020816681711721685132943093776703e-02
4.300000000000002153832667772803688421845436096191e-01,-3.614003086855065854932078650563198607414960861206e-02,4.978235299435796595846070999868970829993486404419e-02,1.000000000000000020816681711721685132943093776703e-02
4.400000000000002242650509742816211655735969543457e-01,-3.610447994719039044309027985946158878505229949951e-02,4.978147219609793672212560977641260251402854919434e-02,1.000000000000000020816681711721685132943093776703e-02
4.500000000000002331468351712828734889626502990723e-01,-3.606874940197867668301157095811504404991865158081e-02,4.978078183751551144542446536433999426662921905518e-02,1.000000000000000020816681711721685132943093776703e-02
4.600000000000002420286193682841258123517036437988e-01,-3.603283913670900229231364164661499671638011932373e-02,4.978028195790318299884802399901673197746276855469e-02,1.000000000000000020816681711721685132943093776703e-02
4.700000000000002509104035652853781357407569885254e-01,-3.599674905416675591007802381682267878204584121704e-02,4.977997259762648174508115062053548172116279602051e-02,1.000000000000000020816681711721685132943093776703e-02
4.800000000000002597921877622866304591298103332520e-01,-3.596047905612735628988474445577594451606273651123e-02,4.977985379812431554480411932672723196446895599365e-02,1.000000000000000020816681711721685132943093776703e-02
4.900000000000002686739719592878827825188636779785e-01,-3.592402904335442043182169413739757146686315536499e-02,4.977992560190930976249390482735179830342531204224e-02,1.000000000000000020816681711721685132943093776703e-02
5.000000000000002220446049250313080847263336181641e-01,-3.588739891559795253117570723588869441300630569458e-02,4.978018805256809176107424264046130701899528503418e-02,1.000000000000000020816681711721685132943093776703e-02
5.100000000000002309263891220325604081153869628906e-01,-3.585058857159251211044193041743710637092590332031e-02,4.978064119476159621324740101044881157577037811279e-02,1.000000000000000020816681711721685132943093776703e-02
5.200000000000002398081733190338127315044403076172e-01,-3.581359790905541684580271066806744784116744995117e-02,4.978128507422531490167472156826988793909549713135e-02,1.000000000000000020816681711721685132943093776703e-02
5.300000000000002486899575160350650548934936523438e-01,-3.577642682468497314918209895040490664541721343994e-02,4.978211973776953958026325608443585224449634552002e-02,1.000000000000000020816681711721685132943093776703e-02
5.400000000000002575717417130363173782825469970703e-01,-3.573907521415868593361864213875378482043743133545e-02,4.978314523327958401877069150032184552401304244995e-02,1.000000000000000020816681711721685132943093776703e-02
5.500000000000002664535259100375697016716003417969e-01,-3.570154297213151001200159839754633139818906784058e-02,4.978436160971597135294075542333303019404411315918e-02,1.000000000000000020816681711721685132943093776703e-02
5.600000000000002753353101070388220250606536865234e-01,-3.566382999223410843470105646701995283365249633789e-02,4.978576891711461449574471771484240889549255371094e-02,1.000000000000000020816681711721685132943093776703e-02
5.700000000000002842170943040400743484497070312500e-01,-3.562593616707110388830415104166604578495025634766e-02,4.978736720658696185415337254198675509542226791382e-02,1.000000000000000020816681711721685132943093776703e-02
5.800000000000002930988785010413266718387603759766e-01,-3.558786138821937172771470159204909577965736389160e-02,4.978915653032013610701511652223416604101657867432e-02,1.000000000000000020816681711721685132943093776703e-02
5.900000000000003019806626980425789952278137207031e-01,-3.554960554622633300825285118662577588111162185669e-02,4.979113694157703134957060342458134982734918594360e-02,1.000000000000000020816681711721685132943093776703e-02
6.000000000000003108624468950438313186168670654297e-01,-3.551116853060825445664860922079242300242185592651e-02,4.979330849469639636017959105629415716975927352905e-02,1.000000000000000020816681711721685132943093776703e-02
6.100000000000003197442310920450836420059204101562e-01,-3.547255022984857619761100977484602481126785278320e-02,4.979567124509290398925998033519135788083076477051e-02,1.000000000000000020816681711721685132943093776703e-02
6.200000000000003286260152890463359653949737548828e-01,-3.543375053139623948039726997194520663470029830933e-02,4.979822524925719279265123873301490675657987594604e-02,1.000000000000000020816681711721685132943093776703e-02
6.300000000000003375077994860475882887840270996094e-01,-3.539476932166403522206366005775635130703449249268e-02,4.980097056475586009272049636820156592875719070435e-02,1.000000000000000020816681711721685132943093776703e-02
6.400000000000003463895836830488406121730804443359e-01,-3.535560648602695255071637348009971901774406433105e-02,4.980390725023148279504425772756803780794143676758e-02,1.000000000000000020816681711721685132943093776703e-02
6.500000000000003552713678800500929355621337890625e-01,-3.531626190882056898212582041196583304554224014282e-02,4.980703536540256881615107431571232154965400695801e-02,1.000000000000000020816681711721685132943093776703e-02
6.600000000000003641531520770513452589511871337891e-01,-3.527673547333941284076530564561835490167140960693e-02,4.981035497106352238905202511887182481586933135986e-02,1.000000000000000020816681711721685132943093776703e-02
6.700000000000003730349362740525975823402404785156e-01,-3.523702706183538119200093774452398065477609634399e-02,4.981386612908454691872606190372607670724391937256e-02,1.000000000000000020816681711721685132943093776703e-02
6.800000000000003819167204710538499057292938232422e-01,-3.519713655551612307981201865914044901728630065918e-02,4.981756890241155477649925842342781834304332733154e-02,1.000000000000000020816681711721685132943093776703e-02
6.900000000000003907985046680551022291183471679688e-01,-3.515706383454347827566266460053157061338424682617e-02,4.982146335506604933884844399472058285027742385864e-02,1.000000000000000020816681711721685132943093776703e-02
7.000000000000003996802888650563545525074005126953e-01,-3.511680877803191602737342691398225724697113037109e-02,4.982554955214497927062922144614276476204395294189e-02,1.000000000000000020816681711721685132943093776703e-02
7.100000000000004085620730620576068758964538574219e-01,-3.507637126404697380799291295261355116963386535645e-02,4.982982755982056505272836943731817882508039474487e-02,1.000000000000000020816681711721685132943093776703e-02
7.200000000000004174438572590588591992855072021484e-01,-3.503575116960370994245721476545440964400768280029e-02,4.983429744534009775414062914933310821652412414551e-02,1.000000000000000020816681711721685132943093776703e-02
7.300000000000004263256414560601115226745605468750e-01,-3.499494837066519092871885732165537774562835693359e-02,4.983895927702573780404549097511335276067256927490e-02,1.000000000000000020816681711721685132943093776703e-02
7.400000000000004352074256530613638460636138916016e-01,-3.495396274214096488108793892024550586938858032227e-02,4.984381312427427213052055776643101125955581665039e-02,1.000000000000000020816681711721685132943093776703e-02
7.500000000000004440892098500626161694526672363281e-01,-3.491279415788555579025498332157440017908811569214e-02,4.984885905755683660478538854476937558501958847046e-02,1.000000000000000020816681711721685132943093776703e-02
7.600000000000004529709940470638684928417205810547e-01,-3.487144249069697859999550360043940600007772445679e-02,4.985409714841864542433924611941620241850614547729e-02,1.000000000000000020816681711721685132943093776703e-02
7.700000000000004618527782440651208162307739257812e-01,-3.482990761231526122276846990644116885960102081299e-02,4.985952746947867192384151735495834145694971084595e-02,1.000000000000000020816681711721685132943093776703e-02
7.800000000000004707345624410663731396198272705078e-01,-3.478818939342097349420868113156757317483425140381e-02,4.986515009442929469152261390263447538018226623535e-02,1.000000000000000020816681711721685132943093776703e-02
7.900000000000004796163466380676254630088806152344e-01,-3.474628770363377694430084829946281388401985168457e-02,4.987096509803597144117048856060137040913105010986e-02,1.000000000000000020816681711721685132943093776703e-02
8.000000000000004884981308350688777863979339599609e-01,-3.470420241151098150744758186192484572529792785645e-02,4.987697255613682267849640084023121744394302368164e-02,1.000000000000000020816681711721685132943093776703e-02
8.100000000000004973799150320701301097869873046875e-01,-3.466193338454610917143128290263121016323566436768e-02,4.988317254564223618418239425409410614520311355591e-02,1.000000000000000020816681711721685132943093776703e-02
8.200000000000005062616992290713824331760406494141e-01,-3.461948048916747844305774606254999525845050811768e-02,4.988956514453442986356535016057023312896490097046e-02,1.000000000000000020816681711721685132943093776703e-02
8.300000000000005151434834260726347565650939941406e-01,-3.457684359073680963048147418703592848032712936401e-02,4.989615043186700071853323379400535486638545989990e-02,1.000000000000000020816681711721685132943093776703e-02
8.400000000000005240252676230738870799541473388672e-01,-3.453402255354782318663708906569809187203645706177e-02,4.990292848776441830827010903703921940177679061890e-02,1.000000000000000020816681711721685132943093776703e-02
8.500000000000005329070518200751394033432006835938e-01,-3.449101724082484499156464607949601486325263977051e-02,4.990989939342154596557676882184750866144895553589e-02,1.000000000000000020816681711721685132943093776703e-02
8.600000000000005417888360170763917267322540283203e-01,-3.444782751472146020699227619843441061675548553467e-02,4.991706323110307874646451864464324899017810821533e-02,1.000000000000000020816681711721685132943093776703e-02
8.700000000000005506706202140776440501213073730469e-01,-3.440445323631913937534321235034440178424119949341e-02,4.992442008414300913532457570909173227846622467041e-02,1.000000000000000020816681711721685132943093776703e-02
8.800000000000005595524044110788963735103607177734e-01,-3.436089426562589227431843141857825685292482376099e-02,4.993197003694401642226452509021328296512365341187e-02,1.000000000000000020816681711721685132943093776703e-02
8.900000000000005684341886080801486968994140625000e-01,-3.431715046157494952705491186861763708293437957764e-02,4.993971317497688383602039152719953563064336776733e-02,1.000000000000000020816681711721685132943093776703e-02
