time,u0,u1,tau
0.000000000000000000000000000000000000000000000000e+00,1.000000000000000000000000000000000000000000000000e+00,0.000000000000000000000000000000000000000000000000e+00,1.000000000000000020816681711721685132943093776703e-02
1.000000000000000020816681711721685132943093776703e-02,1.000000000000000000000000000000000000000000000000e+00,-6.666666666666667406815349750104360282421112060547e-01,1.000000000000000020816681711721685132943093776703e-02
2.000000000000000041633363423443370265886187553406e-02,9.933333333333332904047097144939471036195755004883e-01,-1.333333333333333481363069950020872056484222412109e+00,1.000000000000000020816681711721685132943093776703e-02
2.999999999999999888977697537484345957636833190918e-02,9.799999999999999822364316059974953532218933105469e-01,-1.995555555555555748981078068027272820472717285156e+00,1.000000000000000020816681711721685132943093776703e-02
4.000000000000000083266726846886740531772375106812e-02,9.600444444444444780373260073247365653514862060547e-01,-2.648888888888889070472032472025603055953979492188e+00,1.000000000000000020816681711721685132943093776703e-02
5.000000000000000277555756156289135105907917022705e-02,9.335555555555555828917135841038543730974197387695e-01,-3.288918518518518574467179860221222043037414550781e+00,1.000000000000000020816681711721685132943093776703e-02
6.000000000000000471844785465691529680043458938599e-02,9.006663703703703394154445049935020506381988525391e-01,-3.911288888888889037076523891300894320011138916016e+00,1.000000000000000020816681711721685132943093776703e-02
7.000000000000000666133814775093924254179000854492e-02,8.615534814814814756900318570842500776052474975586e-01,-4.511733135802469263353486894629895687103271484375e+00,1.000000000000000020816681711721685132943093776703e-02
8.000000000000000166533453693773481063544750213623e-02,8.164361501234568274654179731442127376794815063477e-01,-5.086102123456790025102236540988087654113769531250e+00,1.000000000000000020816681711721685132943093776703e-02
8.999999999999999666933092612453037872910499572754e-02,7.655751288888889005690430167305748909711837768555e-01,-5.630392890205761169397646881407126784324645996094e+00,1.000000000000000020816681711721685132943093776703e-02
9.999999999999999167332731531132594682276248931885e-02,7.092711999868313021977428434183821082115173339844e-01,-6.140776309465020510458543867571279406547546386719e+00,1.000000000000000020816681711721685132943093776703e-02
1.099999999999999866773237044981215149164199829102e-01,6.478634368921810660069127152382861822843551635742e-01,-6.613623776122907749197565863141790032386779785156e+00,1.000000000000000020816681711721685132943093776703e-02
1.199999999999999816813200936849170830100774765015e-01,5.817271991309519441060160716006066650152206420898e-01,-7.045532734051028533883709314977750182151794433594e+00,1.000000000000000020816681711721685132943093776703e-02
1.299999999999999766853164828717126511037349700928e-01,5.112718717904416454445026829489506781101226806641e-01,-7.433350866804996570635921671055257320404052734375e+00,1.000000000000000020816681711721685132943093776703e-02
1.399999999999999855671006798729649744927883148193e-01,4.369383631223916486518987767340149730443954467773e-01,-7.774198781331957519569186843000352382659912109375e+00,1.000000000000000020816681711721685132943093776703e-02
1.499999999999999944488848768742172978818416595459e-01,3.591963753090720579130845635518198832869529724121e-01,-8.065491023413551729959181102458387613296508789062e+00,1.000000000000000020816681711721685132943093776703e-02
1.600000000000000033306690738754696212708950042725e-01,2.785414650749365450543848510278621688485145568848e-01,-8.304955273619599509515865065623074769973754882812e+00,1.000000000000000020816681711721685132943093776703e-02
1.700000000000000122124532708767219446599483489990e-01,1.954919123387405532898952742471010424196720123291e-01,-8.490649583669556577092407678719609975814819335938e+00,1.000000000000000020816681711721685132943093776703e-02
1.800000000000000210942374678779742680490016937256e-01,1.105854165020449808576330497089657001197338104248e-01,-8.620977525228717297522962326183915138244628906250e+00,1.000000000000000020816681711721685132943093776703e-02
1.900000000000000299760216648792265914380550384521e-01,2.437564124975780122106527869618730619549751281738e-02,-8.694701136230079896449751686304807662963867187500e+00,1.000000000000000020816681711721685132943093776703e-02
2.000000000000000388578058618804789148271083831787e-01,-6.257137011254300384965887360522174276411533355713e-02,-8.710951563729919300271831161808222532272338867188e+00,1.000000000000000020816681711721685132943093776703e-02
2.100000000000000477395900588817312382161617279053e-01,-1.496808857498422018483807960365083999931812286377e-01,-8.669237316988223085445497417822480201721191406250e+00,1.000000000000000020816681711721685132943093776703e-02
2.200000000000000566213742558829835616052150726318e-01,-2.363732589197244382539508933405159041285514831543e-01,-8.569450059821662080139503814280033111572265625000e+00,1.000000000000000020816681711721685132943093776703e-02
2.300000000000000655031584528842358849942684173584e-01,-3.220677595179410879211445717373862862586975097656e-01,-8.411867887208511973540225881151854991912841796875e+00,1.000000000000000020816681711721685132943093776703e-02
2.400000000000000743849426498854882083833217620850e-01,-4.061864383900262165383310275501571595668792724609e-01,-8.197156047529883693414376466535031795501708984375e+00,1.000000000000000020816681711721685132943093776703e-02
2.500000000000000555111512312578270211815834045410e-01,-4.881579988653250712360431862180121243000030517578e-01,-7.926365088603199993144698964897543191909790039062e+00,1.000000000000000020816681711721685132943093776703e-02
2.600000000000000643929354282590793445706367492676e-01,-5.674216497513571155764111608732491731643676757812e-01,-7.600926422692983130957600224064663052558898925781e+00,1.000000000000000020816681711721685132943093776703e-02
2.700000000000000732747196252603316679596900939941e-01,-6.434309139782870001766923451214097440242767333984e-01,-7.222645322858745053906659450149163603782653808594e+00,1.000000000000000020816681711721685132943093776703e-02
2.800000000000000821565038222615839913487434387207e-01,-7.156573672068744507157589396229013800621032714844e-01,-6.793691380206553276366321370005607604980468750000e+00,1.000000000000000020816681711721685132943093776703e-02
2.900000000000000910382880192628363147377967834473e-01,-7.835942810089400190065589413279667496681213378906e-01,-6.316586468735303938615288643632084131240844726562e+00,1.000000000000000020816681711721685132943093776703e-02
3.000000000000000999200722162640886381268501281738e-01,-8.467601456962930983607407142699230462312698364258e-01,-5.794190281396010888670389249455183744430541992188e+00,1.000000000000000020816681711721685132943093776703e-02
3.100000000000001088018564132653409615159034729004e-01,-9.047020485102532649790418872726149857044219970703e-01,-5.229683517598481934385290514910593628883361816406e+00,1.000000000000000020816681711721685132943093776703e-02
3.200000000000001176836406102665932849049568176270e-01,-9.569988836862380887637868909223470836877822875977e-01,-4.626548818591646572428999206749722361564636230469e+00,1.000000000000000020816681711721685132943093776703e-02
3.300000000000001265654248072678456082940101623535e-01,-1.003264371872154558928968981490470468997955322266e+00,-3.988549562800820957875203021103516221046447753906e+00,1.000000000000000020816681711721685132943093776703e-02
3.400000000000001354472090042690979316830635070801e-01,-1.043149867500162697453447435691487044095993041992e+00,-3.319706648219384437226153750088997185230255126953e+00,1.000000000000000020816681711721685132943093776703e-02
3.500000000000001443289932012703502550721168518066e-01,-1.076346933982356590675522056699264794588088989258e+00,-2.624273403219275824227452176273800432682037353516e+00,1.000000000000000020816681711721685132943093776703e-02
3.600000000000001532107773982716025784611701965332e-01,-1.102589668014549273422630903951358050107955932617e+00,-1.906708780564371430443770805140957236289978027344e+00,1.000000000000000020816681711721685132943093776703e-02
3.700000000000001620925615952728549018502235412598e-01,-1.121656755820193085426694779016543179750442504883e+00,-1.171649001888005248162016869173385202884674072266e+00,1.000000000000000020816681711721685132943093776703e-02
3.800000000000001709743457922741072252392768859863e-01,-1.133373245839073062413149273197632282972335815430e+00,-4.238778313412097098478170664748176932334899902344e-01,1.000000000000000020816681711721685132943093776703e-02
3.900000000000001798561299892753595486283302307129e-01,-1.137612024152485190597872133366763591766357421875e+00,3.317043325515056650942824489902704954147338867188e-01,1.000000000000000020816681711721685132943093776703e-02
4.000000000000001887379141862766118720173835754395e-01,-1.134294980826970222764771278889384120702743530273e+00,1.090112348653162532841065512911882251501083374023e+00,1.000000000000000020816681711721685132943093776703e-02
4.100000000000001976196983832778641954064369201660e-01,-1.123393857340438506398072604497428983449935913086e+00,1.846309002537809274002711390494368970394134521484e+00,1.000000000000000020816681711721685132943093776703e-02
4.200000000000002065014825802791165187954902648926e-01,-1.104930767315060347044664013083092868328094482422e+00,2.595238240764768278268093126825988292694091796875e+00,1.000000000000000020816681711721685132943093776703e-02
4.300000000000002153832667772803688421845436096191e-01,-1.078978384907412602089493702806066721677780151367e+00,3.331858752308141990994272418902255594730377197266e+00,1.000000000000000020816681711721685132943093776703e-02
4.400000000000002242650509742816211655735969543457e-01,-1.045659797384331124447953698108904063701629638672e+00,4.051177675579750392387268220772966742515563964844e+00,1.000000000000000020816681711721685132943093776703e-02
4.500000000000002331468351712828734889626502990723e-01,-1.005148020628533700460138788912445306777954101562e+00,4.748284207169304771412043919553980231285095214844e+00,1.000000000000000020816681711721685132943093776703e-02
4.600000000000002420286193682841258123517036437988e-01,-9.576651785568406349824499557144008576869964599609e-01,5.418382887588327534444943012204021215438842773438e+00,1.000000000000000020816681711721685132943093776703e-02
4.700000000000002509104035652853781357407569885254e-01,-9.034813496809573907242452150967437773942947387695e-01,6.056826339959554772462979599367827177047729492188e+00,1.000000000000000020816681711721685132943093776703e-02
4.800000000000002597921877622866304591298103332520e-01,-8.429130862813618563222917146049439907073974609375e-01,6.659147239746859625597608101088553667068481445312e+00,1.000000000000000020816681711721685132943093776703e-02
4.900000000000002686739719592878827825188636779785e-01,-7.763216138838933133570208156015723943710327148438e-01,7.221089297267767825871942477533593773841857910156e+00,1.000000000000000020816681711721685132943093776703e-02
5.000000000000002220446049250313080847263336181641e-01,-7.041107209112156262165171938249841332435607910156e-01,7.738637039857030330836096254643052816390991210938e+00,1.000000000000000020816681711721685132943093776703e-02
5.100000000000002309263891220325604081153869628906e-01,-6.267243505126453007036957387754227966070175170898e-01,8.208044187131173785587634483817964792251586914062e+00,1.000000000000000020816681711721685132943093776703e-02
5.200000000000002398081733190338127315044403076172e-01,-5.446439086413336072567403789435047656297683715820e-01,8.625860420806271022797773184720426797866821289062e+00,1.000000000000000020816681711721685132943093776703e-02
5.300000000000002486899575160350650548934936523438e-01,-4.583853044332709125718849918484920635819435119629e-01,8.988956359900493353620731795672327280044555664062e+00,1.000000000000000020816681711721685132943093776703e-02
5.400000000000002575717417130363173782825469970703e-01,-3.684957408342659501698790336376987397670745849609e-01,9.294546562856007554387360869441181421279907226562e+00,1.000000000000000020816681711721685132943093776703e-02
5.500000000000002664535259100375697016716003417969e-01,-2.755502752057058524215449324401561170816421508789e-01,9.540210390078851077078070375137031078338623046875e+00,1.000000000000000020816681711721685132943093776703e-02
5.600000000000002753353101070388220250606536865234e-01,-1.801481713049173372098721301881596446037292480469e-01,9.723910573549321867403705255128443241119384765625e+00,1.000000000000000020816681711721685132943093776703e-02
5.700000000000002842170943040400743484497070312500e-01,-8.290906556942412297672717613750137388706207275391e-02,9.844009354419267054936426575295627117156982421875e+00,1.000000000000000020816681711721685132943093776703e-02
5.800000000000002930988785010413266718387603759766e-01,1.553102797476854646241406499029835686087608337402e-02,9.899282064798883951084462751168757677078247070312e+00,1.000000000000000020816681711721685132943093776703e-02
5.900000000000003019806626980425789952278137207031e-01,1.145238486227573848630356678768293932080268859863e-01,9.888928046149038308954004605766385793685913085938e+00,1.000000000000000020816681711721685132943093776703e-02
6.000000000000003108624468950438313186168670654297e-01,2.134131290842477546298994184326147660613059997559e-01,9.812578813733866311963538464624434709548950195312e+00,1.000000000000000020816681711721685132943093776703e-02
6.100000000000003197442310920450836420059204101562e-01,3.115389172215864421744413448323030024766921997070e-01,9.670303394344367475810031464789062738418579101562e+00,1.000000000000000020816681711721685132943093776703e-02
6.200000000000003286260152890463359653949737548828e-01,4.082419511650301480187863489845767617225646972656e-01,9.462610782863309921708605543244630098342895507812e+00,1.000000000000000020816681711721685132943093776703e-02
6.300000000000003375077994860475882887840270996094e-01,5.028680589936632694403328969201538711786270141602e-01,9.190449482086622268184328277129679918289184570312e+00,1.000000000000000020816681711721685132943093776703e-02
6.400000000000003463895836830488406121730804443359e-01,5.947725538145295365310971646977122873067855834961e-01,8.855204109424180458631781220901757478713989257812e+00,1.000000000000000020816681711721685132943093776703e-02
6.500000000000003552713678800500929355621337890625e-01,6.833245949087713988490122574148699641227722167969e-01,8.458689073547827064203374902717769145965576171875e+00,1.000000000000000020816681711721685132943093776703e-02
6.600000000000003641531520770513452589511871337891e-01,7.679114856442497138999669914483092725276947021484e-01,8.003139343608646427696839964482933282852172851562e+00,1.000000000000000020816681711721685132943093776703e-02
6.700000000000003730349362740525975823402404785156e-01,8.479428790803361648542590955912601202726364135742e-01,7.491198353179146174340985453454777598381042480469e+00,1.000000000000000020816681711721685132943093776703e-02
6.800000000000003819167204710538499057292938232422e-01,9.228548626121275688660716696176677942276000976562e-01,6.925903100458921990423277748050168156623840332031e+00,1.000000000000000020816681711721685132943093776703e-02
6.900000000000003907985046680551022291183471679688e-01,9.921138936167167576840597575937863439321517944336e-01,6.310666525384170277845896634971722960472106933594e+00,1.000000000000000020816681711721685132943093776703e-02
7.000000000000003996802888650563545525074005126953e-01,1.055220558870558544839468595455400645732879638672e+00,5.649257262973025994767795054940506815910339355469e+00,1.000000000000000020816681711721685132943093776703e-02
7.100000000000004085620730620576068758964538574219e-01,1.111713131500288831432499137008562684059143066406e+00,4.945776890392653335482009424595162272453308105469e+00,1.000000000000000020816681711721685132943093776703e-02
7.200000000000004174438572590588591992855072021484e-01,1.161170900404215444723377004265785217285156250000e+00,4.204634802725793818467536766547709703445434570312e+00,1.000000000000000020816681711721685132943093776703e-02
7.300000000000004263256414560601115226745605468750e-01,1.203217248431473374026268174930009990930557250977e+00,3.430520869122983373955548813682980835437774658203e+00,1.000000000000000020816681711721685132943093776703e-02
7.400000000000004352074256530613638460636138916016e-01,1.237522457122703256615636746573727577924728393555e+00,2.628376036835334605967773313750512897968292236328e+00,1.000000000000000020816681711721685132943093776703e-02
7.500000000000004440892098500626161694526672363281e-01,1.263806217491056704815832745225634425878524780273e+00,1.803361065420199027542480507690925151109695434570e+00,1.000000000000000020816681711721685132943093776703e-02
7.600000000000004529709940470638684928417205810547e-01,1.281839828145258763925085077062249183654785156250e+00,9.608235870928278909985920108738355338573455810547e-01,1.000000000000000020816681711721685132943093776703e-02
7.700000000000004618527782440651208162307739257812e-01,1.291448064016186947355890879407525062561035156250e+00,1.062637016626553077003336511552333831787109375000e-01,1.000000000000000020816681711721685132943093776703e-02
7.800000000000004707345624410663731396198272705078e-01,1.292510701032813402733268048905301839113235473633e+00,-7.547016743481360645517952434602193534374237060547e-01,1.000000000000000020816681711721685132943093776703e-02
7.900000000000004796163466380676254630088806152344e-01,1.284963684289331942167677880206611007452011108398e+00,-1.616375475036678333040640609397087246179580688477e+00,1.000000000000000020816681711721685132943093776703e-02
8.000000000000004884981308350688777863979339599609e-01,1.268799929538965143294149129360448569059371948242e+00,-2.473017931229566368500627504545263946056365966797e+00,1.000000000000000020816681711721685132943093776703e-02
8.100000000000004973799150320701301097869873046875e-01,1.244069750226669546222524331824388355016708374023e+00,-3.318884550922209797363393590785562992095947265625e+00,1.000000000000000020816681711721685132943093776703e-02
8.200000000000005062616992290713824331760406494141e-01,1.210880904717447359431048425904009491205215454102e+00,-4.148264384406656013482006528647616505622863769531e+00,1.000000000000000020816681711721685132943093776703e-02
8.300000000000005151434834260726347565650939941406e-01,1.169398260873380834823365148622542619705200195312e+00,-4.955518320884954697191915329312905669212341308594e+00,1.000000000000000020816681711721685132943093776703e-02
8.400000000000005240252676230738870799541473388672e-01,1.119843077664531172388251434313133358955383300781e+00,-5.735117161467208291014685528352856636047363281250e+00,1.000000000000000020816681711721685132943093776703e-02
8.500000000000005329070518200751394033432006835938e-01,1.062491906049858991778478412015829235315322875977e+00,-6.481679213243562109880713251186534762382507324219e+00,1.000000000000000020816681711721685132943093776703e-02
8.600000000000005417888360170763917267322540283203e-01,9.976751139174233617978870825027115643024444580078e-01,-7.190007150610134623036628909176215529441833496094e+00,1.000000000000000020816681711721685132943093776703e-02
8.700000000000005506706202140776440501213073730469e-01,9.257750424113220244493049904122017323970794677734e-01,-7.855123893221749753479343780782073736190795898438e+00,1.000000000000000020816681711721685132943093776703e-02
8.800000000000005595524044110788963735103607177734e-01,8.472238034791045313554036511050071567296981811523e-01,-8.472307254829297917808617057744413614273071289062e+00,1.000000000000000020816681711721685132943093776703e-02
8.900000000000005684341886080801486968994140625000e-01,7.625007309308116099089147610357031226158142089844e-01,-9.037123123815367975453227700199931859970092773438e+00,1.000000000000000020816681711721685132943093776703e-02
