time,u0,u1,tau
0.000000e+00,1.000000e+00,0.000000e+00,1.000000e-03
1.000000e-03,1.000000e+00,-6.666667e-02,1.000000e-03
2.000000e-03,9.999333e-01,-1.333333e-01,1.000000e-03
3.000000e-03,9.998000e-01,-1.999956e-01,1.000000e-03
4.000000e-03,9.996000e-01,-2.666489e-01,1.000000e-03
5.000000e-03,9.993334e-01,-3.332889e-01,1.000000e-03
6.000000e-03,9.990001e-01,-3.999111e-01,1.000000e-03
7.000000e-03,9.986002e-01,-4.665111e-01,1.000000e-03
8.000000e-03,9.981336e-01,-5.330845e-01,1.000000e-03
9.000000e-03,9.976006e-01,-5.996267e-01,1.000000e-03
1.000000e-02,9.970009e-01,-6.661334e-01,1.000000e-03
1.100000e-02,9.963348e-01,-7.326001e-01,1.000000e-03
1.200000e-02,9.956022e-01,-7.990225e-01,1.000000e-03
1.300000e-02,9.948032e-01,-8.653959e-01,1.000000e-03
1.400000e-02,9.939378e-01,-9.317161e-01,1.000000e-03
1.500000e-02,9.930061e-01,-9.979787e-01,1.000000e-03
1.600000e-02,9.920081e-01,-1.064179e+00,1.000000e-03
1.700000e-02,9.909439e-01,-1.130313e+00,1.000000e-03
1.800000e-02,9.898136e-01,-1.196376e+00,1.000000e-03
1.900000e-02,9.886172e-01,-1.262363e+00,1.000000e-03
2.000000e-02,9.873549e-01,-1.328271e+00,1.000000e-03
2.100000e-02,9.860266e-01,-1.394095e+00,1.000000e-03
2.200000e-02,9.846325e-01,-1.459830e+00,1.000000e-03
2.300000e-02,9.831727e-01,-1.525472e+00,1.000000e-03
2.400000e-02,9.816472e-01,-1.591017e+00,1.000000e-03
2.500000e-02,9.800562e-01,-1.656460e+00,1.000000e-03
2.600000e-02,9.783997e-01,-1.721797e+00,1.000000e-03
2.700000e-02,9.766779e-01,-1.787024e+00,1.000000e-03
2.800000e-02,9.748909e-01,-1.852136e+00,1.000000e-03
2.900000e-02,9.730388e-01,-1.917128e+00,1.000000e-03
3.000000e-02,9.711216e-01,-1.981998e+00,1.000000e-03
3.100000e-02,9.691396e-01,-2.046739e+00,1.000000e-03
3.200000e-02,9.670929e-01,-2.111348e+00,1.000000e-03
3.300000e-02,9.649815e-01,-2.175821e+00,1.000000e-03
3.400000e-02,9.628057e-01,-2.240153e+00,1.000000e-03
3.500000e-02,9.605656e-01,-2.304340e+00,1.000000e-03
3.600000e-02,9.582612e-01,-2.368378e+00,1.000000e-03
3.700000e-02,9.558928e-01,-2.432262e+00,1.000000e-03
3.800000e-02,9.534606e-01,-2.495988e+00,1.000000e-03
3.900000e-02,9.509646e-01,-2.559553e+00,1.000000e-03
4.000000e-02,9.484050e-01,-2.622950e+00,1.000000e-03
4.100000e-02,9.457821e-01,-2.686177e+00,1.000000e-03
4.200000e-02,9.430959e-01,-2.749229e+00,1.000000e-03
4.300000e-02,9.403467e-01,-2.812102e+00,1.000000e-03
4.400000e-02,9.375346e-01,-2.874792e+00,1.000000e-03
4.500000e-02,9.346598e-01,-2.937294e+00,1.000000e-03
4.600000e-02,9.317225e-01,-2.999605e+00,1.000000e-03
4.700000e-02,9.287229e-01,-3.061720e+00,1.000000e-03
4.800000e-02,9.256612e-01,-3.123635e+00,1.000000e-03
4.900000e-02,9.225375e-01,-3.185346e+00,1.000000e-03
5.000000e-02,9.193522e-01,-3.246848e+00,1.000000e-03
5.100000e-02,9.161053e-01,-3.308138e+00,1.000000e-03
5.200000e-02,9.127972e-01,-3.369212e+00,1.000000e-03
5.300000e-02,9.094280e-01,-3.430065e+00,1.000000e-03
5.400000e-02,9.059979e-01,-3.490694e+00,1.000000e-03
5.500000e-02,9.025072e-01,-3.551093e+00,1.000000e-03
5.600000e-02,8.989561e-01,-3.611261e+00,1.000000e-03
5.700000e-02,8.953449e-01,-3.671191e+00,1.000000e-03
5.800000e-02,8.916737e-01,-3.730881e+00,1.000000e-03
5.900000e-02,8.879428e-01,-3.790326e+00,1.000000e-03
6.000000e-02,8.841525e-01,-3.849522e+00,1.000000e-03
6.100000e-02,8.803030e-01,-3.908465e+00,1.000000e-03
6.200000e-02,8.763945e-01,-3.967152e+00,1.000000e-03
6.300000e-02,8.724273e-01,-4.025578e+00,1.000000e-03
6.400000e-02,8.684018e-01,-4.083740e+00,1.000000e-03
6.500000e-02,8.643180e-01,-4.141634e+00,1.000000e-03
6.600000e-02,8.601764e-01,-4.199255e+00,1.000000e-03
6.700000e-02,8.559771e-01,-4.256600e+00,1.000000e-03
6.800000e-02,8.517205e-01,-4.313665e+00,1.000000e-03
6.900000e-02,8.474069e-01,-4.370446e+00,1.000000e-03
7.000000e-02,8.430364e-01,-4.426940e+00,1.000000e-03
7.100000e-02,8.386095e-01,-4.483143e+00,1.000000e-03
7.200000e-02,8.341263e-01,-4.539050e+00,1.000000e-03
7.300000e-02,8.295873e-01,-4.594658e+00,1.000000e-03
7.400000e-02,8.249926e-01,-4.649964e+00,1.000000e-03
7.500000e-02,8.203427e-01,-4.704964e+00,1.000000e-03
7.600000e-02,8.156377e-01,-4.759653e+00,1.000000e-03
7.700000e-02,8.108781e-01,-4.814029e+00,1.000000e-03
7.800000e-02,8.060640e-01,-4.868088e+00,1.000000e-03
7.900000e-02,8.011959e-01,-4.921825e+00,1.000000e-03
8.000000e-02,7.962741e-01,-4.975238e+00,1.000000e-03
8.100000e-02,7.912989e-01,-5.028323e+00,1.000000e-03
8.200000e-02,7.862705e-01,-5.081076e+00,1.000000e-03
8.300000e-02,7.811895e-01,-5.133495e+00,1.000000e-03
8.400000e-02,7.760560e-01,-5.185574e+00,1.000000e-03
8.500000e-02,7.708704e-01,-5.237311e+00,1.000000e-03
8.600000e-02,7.656331e-01,-5.288702e+00,1.000000e-03
8.700000e-02,7.603444e-01,-5.339744e+00,1.000000e-03
8.800000e-02,7.550046e-01,-5.390434e+00,1.000000e-03
8.900000e-02,7.496142e-01,-5.440768e+00,1.000000e-03
9.000000e-02,7.441734e-01,-5.490742e+00,1.000000e-03
9.100000e-02,7.386827e-01,-5.540354e+00,1.000000e-03
9.200000e-02,7.331423e-01,-5.589599e+00,1.000000e-03
9.300000e-02,7.275528e-01,-5.638475e+00,1.000000e-03
9.400000e-02,7.219143e-01,-5.686979e+00,1.000000e-03
9.500000e-02,7.162273e-01,-5.735106e+00,1.000000e-03
9.600000e-02,7.104922e-01,-5.782855e+00,1.000000e-03
9.700000e-02,7.047093e-01,-5.830221e+00,1.000000e-03
9.800000e-02,6.988791e-01,-5.877202e+00,1.000000e-03
9.900000e-02,6.930019e-01,-5.923794e+00,1.000000e-03
1.000000e-01,6.870781e-01,-5.969994e+00,1.000000e-03
1.010000e-01,6.811081e-01,-6.015799e+00,1.000000e-03
1.020000e-01,6.750923e-01,-6.061206e+00,1.000000e-03
1.030000e-01,6.690311e-01,-6.106212e+00,1.000000e-03
1.040000e-01,6.629249e-01,-6.150814e+00,1.000000e-03
1.050000e-01,6.567741e-01,-6.195009e+00,1.000000e-03
1.060000e-01,6.505791e-01,-6.238794e+00,1.000000e-03
1.070000e-01,6.443403e-01,-6.282166e+00,1.000000e-03
1.080000e-01,6.380581e-01,-6.325122e+00,1.000000e-03
1.090000e-01,6.317330e-01,-6.367659e+00,1.000000e-03
1.100000e-01,6.253653e-01,-6.409775e+00,1.000000e-03
1.110000e-01,6.189556e-01,-6.451466e+00,1.000000e-03
1.120000e-01,6.125041e-01,-6.492730e+00,1.000000e-03
1.130000e-01,6.060114e-01,-6.533563e+00,1.000000e-03
1.140000e-01,5.994778e-01,-6.573964e+00,1.000000e-03
1.150000e-01,5.929038e-01,-6.613929e+00,1.000000e-03
1.160000e-01,5.862899e-01,-6.653456e+00,1.000000e-03
1.170000e-01,5.796365e-01,-6.692542e+00,1.000000e-03
1.180000e-01,5.729439e-01,-6.731185e+00,1.000000e-03
1.190000e-01,5.662127e-01,-6.769381e+00,1.000000e-03
1.200000e-01,5.594434e-01,-6.807128e+00,1.000000e-03
1.210000e-01,5.526362e-01,-6.844425e+00,1.000000e-03
1.220000e-01,5.457918e-01,-6.881267e+00,1.000000e-03
1.230000e-01,5.389105e-01,-6.917653e+00,1.000000e-03
1.240000e-01,5.319929e-01,-6.953581e+00,1.000000e-03
1.250000e-01,5.250393e-01,-6.989047e+00,1.000000e-03
1.260000e-01,5.180503e-01,-7.024049e+00,1.000000e-03
1.270000e-01,5.110262e-01,-7.058586e+00,1.000000e-03
1.280000e-01,5.039676e-01,-7.092654e+00,1.000000e-03
1.290000e-01,4.968750e-01,-7.126252e+00,1.000000e-03
1.300000e-01,4.897487e-01,-7.159377e+00,1.000000e-03
1.310000e-01,4.825893e-01,-7.192027e+00,1.000000e-03
1.320000e-01,4.753973e-01,-7.224200e+00,1.000000e-03
1.330000e-01,4.681731e-01,-7.255893e+00,1.000000e-03
1.340000e-01,4.609172e-01,-7.287104e+00,1.000000e-03
1.350000e-01,4.536301e-01,-7.317832e+00,1.000000e-03
1.360000e-01,4.463123e-01,-7.348074e+00,1.000000e-03
1.370000e-01,4.389642e-01,-7.377828e+00,1.000000e-03
1.380000e-01,4.315864e-01,-7.407093e+00,1.000000e-03
1.390000e-01,4.241793e-01,-7.435865e+00,1.000000e-03
1.400000e-01,4.167434e-01,-7.464144e+00,1.000000e-03
1.410000e-01,4.092793e-01,-7.491927e+00,1.000000e-03
1.420000e-01,4.017873e-01,-7.519212e+00,1.000000e-03
1.430000e-01,3.942681e-01,-7.545998e+00,1.000000e-03
1.440000e-01,3.867221e-01,-7.572282e+00,1.000000e-03
1.450000e-01,3.791499e-01,-7.598064e+00,1.000000e-03
1.460000e-01,3.715518e-01,-7.623340e+00,1.000000e-03
1.470000e-01,3.639284e-01,-7.648111e+00,1.000000e-03
1.480000e-01,3.562803e-01,-7.672372e+00,1.000000e-03
1.490000e-01,3.486080e-01,-7.696125e+00,1.000000e-03
1.500000e-01,3.409118e-01,-7.719365e+00,1.000000e-03
1.510000e-01,3.331925e-01,-7.742092e+00,1.000000e-03
1.520000e-01,3.254504e-01,-7.764305e+00,1.000000e-03
1.530000e-01,3.176861e-01,-7.786002e+00,1.000000e-03
1.540000e-01,3.099001e-01,-7.807181e+00,1.000000e-03
1.550000e-01,3.020929e-01,-7.827841e+00,1.000000e-03
1.560000e-01,2.942651e-01,-7.847981e+00,1.000000e-03
1.570000e-01,2.864171e-01,-7.867598e+00,1.000000e-03
1.580000e-01,2.785495e-01,-7.886693e+00,1.000000e-03
1.590000e-01,2.706628e-01,-7.905263e+00,1.000000e-03
1.600000e-01,2.627575e-01,-7.923307e+00,1.000000e-03
1.610000e-01,2.548342e-01,-7.940824e+00,1.000000e-03
1.620000e-01,2.468934e-01,-7.957813e+00,1.000000e-03
1.630000e-01,2.389356e-01,-7.974273e+00,1.000000e-03
1.640000e-01,2.309613e-01,-7.990202e+00,1.000000e-03
1.650000e-01,2.229711e-01,-8.005599e+00,1.000000e-03
1.660000e-01,2.149655e-01,-8.020464e+00,1.000000e-03
1.670000e-01,2.069450e-01,-8.034795e+00,1.000000e-03
1.680000e-01,1.989102e-01,-8.048591e+00,1.000000e-03
1.690000e-01,1.908617e-01,-8.061852e+00,1.000000e-03
1.700000e-01,1.827998e-01,-8.074576e+00,1.000000e-03
1.710000e-01,1.747252e-01,-8.086763e+00,1.000000e-03
1.720000e-01,1.666385e-01,-8.098411e+00,1.000000e-03
1.730000e-01,1.585400e-01,-8.109520e+00,1.000000e-03
1.740000e-01,1.504305e-01,-8.120090e+00,1.000000e-03
1.750000e-01,1.423104e-01,-8.130118e+00,1.000000e-03
1.760000e-01,1.341803e-01,-8.139606e+00,1.000000e-03
1.770000e-01,1.260407e-01,-8.148551e+00,1.000000e-03
1.780000e-01,1.178922e-01,-8.156954e+00,1.000000e-03
1.790000e-01,1.097352e-01,-8.164813e+00,1.000000e-03
1.800000e-01,1.015704e-01,-8.172129e+00,1.000000e-03
1.810000e-01,9.339827e-02,-8.178900e+00,1.000000e-03
1.820000e-01,8.521937e-02,-8.185127e+00,1.000000e-03
1.830000e-01,7.703424e-02,-8.190808e+00,1.000000e-03
1.840000e-01,6.884343e-02,-8.195944e+00,1.000000e-03
1.850000e-01,6.064749e-02,-8.200533e+00,1.000000e-03
1.860000e-01,5.244696e-02,-8.204576e+00,1.000000e-03
1.870000e-01,4.424238e-02,-8.208073e+00,1.000000e-03
1.880000e-01,3.603431e-02,-8.211022e+00,1.000000e-03
1.890000e-01,2.782329e-02,-8.213425e+00,1.000000e-03
1.900000e-01,1.960986e-02,-8.215279e+00,1.000000e-03
1.910000e-01,1.139458e-02,-8.216587e+00,1.000000e-03
1.920000e-01,3.177996e-03,-8.217346e+00,1.000000e-03
1.930000e-01,-5.039351e-03,-8.217558e+00,1.000000e-03
1.940000e-01,-1.325691e-02,-8.217222e+00,1.000000e-03
1.950000e-01,-2.147413e-02,-8.216339e+00,1.000000e-03
1.960000e-01,-2.969047e-02,-8.214907e+00,1.000000e-03
1.970000e-01,-3.790538e-02,-8.212928e+00,1.000000e-03
1.980000e-01,-4.611830e-02,-8.210401e+00,1.000000e-03
1.990000e-01,-5.432871e-02,-8.207326e+00,1.000000e-03
2.000000e-01,-6.253603e-02,-8.203704e+00,1.000000e-03
2.010000e-01,-7.073974e-02,-8.199535e+00,1.000000e-03
2.020000e-01,-7.893927e-02,-8.194819e+00,1.000000e-03
2.030000e-01,-8.713409e-02,-8.189556e+00,1.000000e-03
2.040000e-01,-9.532365e-02,-8.183747e+00,1.000000e-03
2.050000e-01,-1.035074e-01,-8.177393e+00,1.000000e-03
2.060000e-01,-1.116848e-01,-8.170492e+00,1.000000e-03
2.070000e-01,-1.198553e-01,-8.163046e+00,1.000000e-03
2.080000e-01,-1.280183e-01,-8.155056e+00,1.000000e-03
2.090000e-01,-1.361734e-01,-8.146522e+00,1.000000e-03
2.100000e-01,-1.443199e-01,-8.137443e+00,1.000000e-03
2.110000e-01,-1.524573e-01,-8.127822e+00,1.000000e-03
2.120000e-01,-1.605852e-01,-8.117658e+00,1.000000e-03
2.130000e-01,-1.687028e-01,-8.106952e+00,1.000000e-03
2.140000e-01,-1.768098e-01,-8.095706e+00,1.000000e-03
2.150000e-01,-1.849055e-01,-8.083918e+00,1.000000e-03
2.160000e-01,-1.929894e-01,-8.071591e+00,1.000000e-03
2.170000e-01,-2.010610e-01,-8.058725e+00,1.000000e-03
2.180000e-01,-2.091197e-01,-8.045321e+00,1.000000e-03
2.190000e-01,-2.171650e-01,-8.031380e+00,1.000000e-03
2.200000e-01,-2.251964e-01,-8.016902e+00,1.000000e-03
2.210000e-01,-2.332133e-01,-8.001889e+00,1.000000e-03
2.220000e-01,-2.412152e-01,-7.986342e+00,1.000000e-03
2.230000e-01,-2.492016e-01,-7.970261e+00,1.000000e-03
2.240000e-01,-2.571718e-01,-7.953647e+00,1.000000e-03
2.250000e-01,-2.651255e-01,-7.936502e+00,1.000000e-03
2.260000e-01,-2.730620e-01,-7.918827e+00,1.000000e-03
2.270000e-01,-2.809808e-01,-7.900623e+00,1.000000e-03
2.280000e-01,-2.888814e-01,-7.881891e+00,1.000000e-03
2.290000e-01,-2.967633e-01,-7.862632e+00,1.000000e-03
2.300000e-01,-3.046259e-01,-7.842848e+00,1.000000e-03
2.310000e-01,-3.124688e-01,-7.822540e+00,1.000000e-03
2.320000e-01,-3.202913e-01,-7.801709e+00,1.000000e-03
2.330000e-01,-3.280930e-01,-7.780356e+00,1.000000e-03
2.340000e-01,-3.358734e-01,-7.758483e+00,1.000000e-03
2.350000e-01,-3.436319e-01,-7.736091e+00,1.000000e-03
2.360000e-01,-3.513680e-01,-7.713183e+00,1.000000e-03
2.370000e-01,-3.590811e-01,-7.689758e+00,1.000000e-03
2.380000e-01,-3.667709e-01,-7.665819e+00,1.000000e-03
2.390000e-01,-3.744367e-01,-7.641368e+00,1.000000e-03
2.400000e-01,-3.820781e-01,-7.616405e+00,1.000000e-03
2.410000e-01,-3.896945e-01,-7.590934e+00,1.000000e-03
2.420000e-01,-3.972854e-01,-7.564954e+00,1.000000e-03
2.430000e-01,-4.048504e-01,-7.538468e+00,1.000000e-03
2.440000e-01,-4.123889e-01,-7.511478e+00,1.000000e-03
2.450000e-01,-4.199003e-01,-7.483986e+00,1.000000e-03
2.460000e-01,-4.273843e-01,-7.455992e+00,1.000000e-03
2.470000e-01,-4.348403e-01,-7.427500e+00,1.000000e-03
2.480000e-01,-4.422678e-01,-7.398511e+00,1.000000e-03
2.490000e-01,-4.496663e-01,-7.369026e+00,1.000000e-03
2.500000e-01,-4.570353e-01,-7.339048e+00,1.000000e-03
2.510000e-01,-4.643744e-01,-7.308579e+00,1.000000e-03
2.520000e-01,-4.716830e-01,-7.277621e+00,1.000000e-03
2.530000e-01,-4.789606e-01,-7.246175e+00,1.000000e-03
2.540000e-01,-4.862068e-01,-7.214245e+00,1.000000e-03
2.550000e-01,-4.934210e-01,-7.181831e+00,1.000000e-03
2.560000e-01,-5.006028e-01,-7.148936e+00,1.000000e-03
2.570000e-01,-5.077518e-01,-7.115563e+00,1.000000e-03
2.580000e-01,-5.148673e-01,-7.081713e+00,1.000000e-03
2.590000e-01,-5.219491e-01,-7.047388e+00,1.000000e-03
2.600000e-01,-5.289964e-01,-7.012592e+00,1.000000e-03
2.610000e-01,-5.360090e-01,-6.977325e+00,1.000000e-03
2.620000e-01,-5.429864e-01,-6.941591e+00,1.000000e-03
2.630000e-01,-5.499280e-01,-6.905392e+00,1.000000e-03
2.640000e-01,-5.568333e-01,-6.868730e+00,1.000000e-03
2.650000e-01,-5.637021e-01,-6.831608e+00,1.000000e-03
2.660000e-01,-5.705337e-01,-6.794028e+00,1.000000e-03
2.670000e-01,-5.773277e-01,-6.755992e+00,1.000000e-03
2.680000e-01,-5.840837e-01,-6.717504e+00,1.000000e-03
2.690000e-01,-5.908012e-01,-6.678565e+00,1.000000e-03
2.700000e-01,-5.974798e-01,-6.639178e+00,1.000000e-03
2.710000e-01,-6.041189e-01,-6.599346e+00,1.000000e-03
2.720000e-01,-6.107183e-01,-6.559072e+00,1.000000e-03
2.730000e-01,-6.172774e-01,-6.518357e+00,1.000000e-03
2.740000e-01,-6.237957e-01,-6.477205e+00,1.000000e-03
2.750000e-01,-6.302729e-01,-6.435619e+00,1.000000e-03
2.760000e-01,-6.367085e-01,-6.393601e+00,1.000000e-03
2.770000e-01,-6.431021e-01,-6.351153e+00,1.000000e-03
2.780000e-01,-6.494533e-01,-6.308280e+00,1.000000e-03
2.790000e-01,-6.557616e-01,-6.264983e+00,1.000000e-03
2.800000e-01,-6.620266e-01,-6.221266e+00,1.000000e-03
2.810000e-01,-6.682478e-01,-6.177130e+00,1.000000e-03
2.820000e-01,-6.744250e-01,-6.132581e+00,1.000000e-03
2.830000e-01,-6.805575e-01,-6.087619e+00,1.000000e-03
2.840000e-01,-6.866452e-01,-6.042248e+00,1.000000e-03
2.850000e-01,-6.926874e-01,-5.996472e+00,1.000000e-03
2.860000e-01,-6.986839e-01,-5.950293e+00,1.000000e-03
2.870000e-01,-7.046342e-01,-5.903714e+00,1.000000e-03
2.880000e-01,-7.105379e-01,-5.856738e+00,1.000000e-03
2.890000e-01,-7.163946e-01,-5.809369e+00,1.000000e-03
2.900000e-01,-7.222040e-01,-5.761610e+00,1.000000e-03
2.910000e-01,-7.279656e-01,-5.713463e+00,1.000000e-03
2.920000e-01,-7.336791e-01,-5.664932e+00,1.000000e-03
2.930000e-01,-7.393440e-01,-5.616020e+00,1.000000e-03
2.940000e-01,-7.449600e-01,-5.566730e+00,1.000000e-03
2.950000e-01,-7.505267e-01,-5.517066e+00,1.000000e-03
2.960000e-01,-7.560438e-01,-5.467031e+00,1.000000e-03
2.970000e-01,-7.615108e-01,-5.416628e+00,1.000000e-03
2.980000e-01,-7.669275e-01,-5.365861e+00,1.000000e-03
2.990000e-01,-7.722933e-01,-5.314732e+00,1.000000e-03
3.000000e-01,-7.776081e-01,-5.263246e+00,1.000000e-03
3.010000e-01,-7.828713e-01,-5.211405e+00,1.000000e-03
3.020000e-01,-7.880827e-01,-5.159214e+00,1.000000e-03
3.030000e-01,-7.932419e-01,-5.106675e+00,1.000000e-03
3.040000e-01,-7.983486e-01,-5.053792e+00,1.000000e-03
3.050000e-01,-8.034024e-01,-5.000569e+00,1.000000e-03
3.060000e-01,-8.084030e-01,-4.947009e+00,1.000000e-03
3.070000e-01,-8.133500e-01,-4.893115e+00,1.000000e-03
3.080000e-01,-8.182431e-01,-4.838892e+00,1.000000e-03
3.090000e-01,-8.230820e-01,-4.784342e+00,1.000000e-03
3.100000e-01,-8.278663e-01,-4.729470e+00,1.000000e-03
3.110000e-01,-8.325958e-01,-4.674279e+00,1.000000e-03
3.120000e-01,-8.372701e-01,-4.618773e+00,1.000000e-03
3.130000e-01,-8.418888e-01,-4.562955e+00,1.000000e-03
3.140000e-01,-8.464518e-01,-4.506829e+00,1.000000e-03
3.150000e-01,-8.509586e-01,-4.450399e+00,1.000000e-03
3.160000e-01,-8.554090e-01,-4.393668e+00,1.000000e-03
3.170000e-01,-8.598027e-01,-4.336641e+00,1.000000e-03
3.180000e-01,-8.641393e-01,-4.279321e+00,1.000000e-03
3.190000e-01,-8.684187e-01,-4.221711e+00,1.000000e-03
3.200000e-01,-8.726404e-01,-4.163817e+00,1.000000e-03
3.210000e-01,-8.768042e-01,-4.105641e+00,1.000000e-03
3.220000e-01,-8.809098e-01,-4.047187e+00,1.000000e-03
3.230000e-01,-8.849570e-01,-3.988460e+00,1.000000e-03
3.240000e-01,-8.889455e-01,-3.929463e+00,1.000000e-03
3.250000e-01,-8.928749e-01,-3.870200e+00,1.000000e-03
3.260000e-01,-8.967451e-01,-3.810675e+00,1.000000e-03
3.270000e-01,-9.005558e-01,-3.750892e+00,1.000000e-03
3.280000e-01,-9.043067e-01,-3.690855e+00,1.000000e-03
3.290000e-01,-9.079976e-01,-3.630568e+00,1.000000e-03
3.300000e-01,-9.116281e-01,-3.570034e+00,1.000000e-03
3.310000e-01,-9.151982e-01,-3.509259e+00,1.000000e-03
3.320000e-01,-9.187074e-01,-3.448246e+00,1.000000e-03
3.330000e-01,-9.221557e-01,-3.386999e+00,1.000000e-03
3.340000e-01,-9.255427e-01,-3.325522e+00,1.000000e-03
3.350000e-01,-9.288682e-01,-3.263819e+00,1.000000e-03
3.360000e-01,-9.321320e-01,-3.201894e+00,1.000000e-03
3.370000e-01,-9.353339e-01,-3.139752e+00,1.000000e-03
3.380000e-01,-9.384737e-01,-3.077397e+00,1.000000e-03
3.390000e-01,-9.415511e-01,-3.014832e+00,1.000000e-03
3.400000e-01,-9.445659e-01,-2.952062e+00,1.000000e-03
3.410000e-01,-9.475179e-01,-2.889091e+00,1.000000e-03
3.420000e-01,-9.504070e-01,-2.825923e+00,1.000000e-03
3.430000e-01,-9.532330e-01,-2.762562e+00,1.000000e-03
3.440000e-01,-9.559955e-01,-2.699013e+00,1.000000e-03
3.450000e-01,-9.586945e-01,-2.635280e+00,1.000000e-03
3.460000e-01,-9.613298e-01,-2.571367e+00,1.000000e-03
3.470000e-01,-9.639012e-01,-2.507279e+00,1.000000e-03
3.480000e-01,-9.664085e-01,-2.443019e+00,1.000000e-03
3.490000e-01,-9.688515e-01,-2.378591e+00,1.000000e-03
3.500000e-01,-9.712301e-01,-2.314001e+00,1.000000e-03
3.510000e-01,-9.735441e-01,-2.249253e+00,1.000000e-03
3.520000e-01,-9.757933e-01,-2.184350e+00,1.000000e-03
3.530000e-01,-9.779777e-01,-2.119297e+00,1.000000e-03
3.540000e-01,-9.800970e-01,-2.054098e+00,1.000000e-03
3.550000e-01,-9.821511e-01,-1.988759e+00,1.000000e-03
3.560000e-01,-9.841398e-01,-1.923282e+00,1.000000e-03
3.570000e-01,-9.860631e-01,-1.857673e+00,1.000000e-03
3.580000e-01,-9.879208e-01,-1.791935e+00,1.000000e-03
3.590000e-01,-9.897127e-01,-1.726074e+00,1.000000e-03
3.600000e-01,-9.914388e-01,-1.660093e+00,1.000000e-03
3.610000e-01,-9.930989e-01,-1.593997e+00,1.000000e-03
3.620000e-01,-9.946929e-01,-1.527790e+00,1.000000e-03
3.630000e-01,-9.962207e-01,-1.461477e+00,1.000000e-03
3.640000e-01,-9.976821e-01,-1.395063e+00,1.000000e-03
3.650000e-01,-9.990772e-01,-1.328551e+00,1.000000e-03
3.660000e-01,-1.000406e+00,-1.261945e+00,1.000000e-03
3.670000e-01,-1.001668e+00,-1.195252e+00,1.000000e-03
3.680000e-01,-1.002863e+00,-1.128474e+00,1.000000e-03
3.690000e-01,-1.003991e+00,-1.061616e+00,1.000000e-03
3.700000e-01,-1.005053e+00,-9.946835e-01,1.000000e-03
3.710000e-01,-1.006048e+00,-9.276800e-01,1.000000e-03
3.720000e-01,-1.006975e+00,-8.606101e-01,1.000000e-03
