time,u0,u1,tau
0.000000000000000000000000000000000000000000000000e+00,1.000000000000000000000000000000000000000000000000e+00,0.000000000000000000000000000000000000000000000000e+00,1.000000000000000020816681711721685132943093776703e-02
1.000000000000000020816681711721685132943093776703e-02,1.000000000000000000000000000000000000000000000000e+00,-6.666666666666667406815349750104360282421112060547e-01,1.000000000000000020816681711721685132943093776703e-02
2.000000000000000041633363423443370265886187553406e-02,9.933333333333332904047097144939471036195755004883e-01,-1.333333333333333481363069950020872056484222412109e+00,1.000000000000000020816681711721685132943093776703e-02
2.999999999999999888977697537484345957636833190918e-02,9.799999999999999822364316059974953532218933105469e-01,-1.995555555555555748981078068027272820472717285156e+00,1.000000000000000020816681711721685132943093776703e-02
4.000000000000000083266726846886740531772375106812e-02,9.567921296296295619043803526437841355800628662109e-01,-2.641784722222222825394055689685046672821044921875e+00,1.000000000000000020816681711721685132943093776703e-02
5.000000000000000277555756156289135105907917022705e-02,9.272234825906635613534945150604471564292907714844e-01,-3.270053098074203301592888237792067229747772216797e+00,1.000000000000000020816681711721685132943093776703e-02
6.000000000000000471844785465691529680043458938599e-02,8.914673335639524687223911314504221081733703613281e-01,-3.876621430001174317681034153793007135391235351562e+00,1.000000000000000020816681711721685132943093776703e-02
7.000000000000000666133814775093924254179000854492e-02,8.497742602559315017174412787426263093948364257812e-01,-4.457357777342002336240511795040220022201538085938e+00,1.000000000000000020816681711721685132943093776703e-02
8.000000000000000166533453693773481063544750213623e-02,8.024191554457681396783641503134276717901229858398e-01,-5.008396080641034586733439937233924865722656250000e+00,1.000000000000000020816681711721685132943093776703e-02
8.999999999999999666933092612453037872910499572754e-02,7.497175571751506506501527837826870381832122802734e-01,-5.526063418697086504494109249208122491836547851562e+00,1.000000000000000020816681711721685132943093776703e-02
9.999999999999999167332731531132594682276248931885e-02,6.920205999364685833796784208971075713634490966797e-01,-6.006910771983841712540197477210313081741333007812e+00,1.000000000000000020816681711721685132943093776703e-02
1.099999999999999866773237044981215149164199829102e-01,6.297127186923878738866733328904956579208374023438e-01,-6.447734250351968121606205386342480778694152832031e+00,1.000000000000000020816681711721685132943093776703e-02
1.199999999999999816813200936849170830100774765015e-01,5.632090691483430111574648435635026544332504272461e-01,-6.845596655030396604502129775937646627426147460938e+00,1.000000000000000020816681711721685132943093776703e-02
1.299999999999999766853164828717126511037349700928e-01,4.929527633121262297777320782188326120376586914062e-01,-7.197847032980028814108663937076926231384277343750e+00,1.000000000000000020816681711721685132943093776703e-02
1.399999999999999855671006798729649744927883148193e-01,4.194119170945045382836724456865340471267700195312e-01,-7.502138343157297661889515438815578818321228027344e+00,1.000000000000000020816681711721685132943093776703e-02
1.499999999999999944488848768742172978818416595459e-01,3.430765312727152016591958272329065948724746704102e-01,-7.756443094520308889627813186962157487869262695312e+00,1.000000000000000020816681711721685132943093776703e-02
1.600000000000000033306690738754696212708950042725e-01,2.644552266282687580378762959298910573124885559082e-01,-7.959066855212966196120305539807304739952087402344e+00,1.000000000000000020816681711721685132943093776703e-02
1.700000000000000122124532708767219446599483489990e-01,1.840718550190784119635623028443660587072372436523e-01,-8.108659542555949784059521334711462259292602539062e+00,1.000000000000000020816681711721685132943093776703e-02
1.800000000000000210942374678779742680490016937256e-01,1.024620089671711559153877146854938473552465438843e-01,-8.204224418651675065916606399696320295333862304688e+00,1.000000000000000020816681711721685132943093776703e-02
1.900000000000000299760216648792265914380550384521e-01,2.016945301825651126748084607243072241544723510742e-02,-8.245124731661023886886141553986817598342895507812e+00,1.000000000000000020816681711721685132943093776703e-02
2.000000000000000388578058618804789148271083831787e-01,-6.225749934905781823868409219357999972999095916748e-02,-8.231087958501296597546570410486310720443725585938e+00,1.000000000000000020816681711721685132943093776703e-02
2.100000000000000477395900588817312382161617279053e-01,-1.442696391238359188147200029561645351350307464600e-01,-8.162207620696149135142150043975561857223510742188e+00,1.000000000000000020816681711721685132943093776703e-02
2.200000000000000566213742558829835616052150726318e-01,-2.253205211306423261241604905080748721957206726074e-01,-8.038942661278301926586209447123110294342041015625e+00,1.000000000000000020816681711721685132943093776703e-02
2.300000000000000655031584528842358849942684173584e-01,-3.048701049823395736737552397244144231081008911133e-01,-7.862114386896468687382366624660789966583251953125e+00,1.000000000000000020816681711721685132943093776703e-02
2.400000000000000743849426498854882083833217620850e-01,-3.823883533582627114455476657894905656576156616211e-01,-7.632900995500971674800894106738269329071044921875e+00,1.000000000000000020816681711721685132943093776703e-02
2.500000000000000555111512312578270211815834045410e-01,-4.573587636325155414418475174898048862814903259277e-01,-7.352829726069710858382677542977035045623779296875e+00,1.000000000000000020816681711721685132943093776703e-02
2.600000000000000643929354282590793445706367492676e-01,-5.292818093212189323182315092708449810743331909180e-01,-7.023766682680474993105690373340621590614318847656e+00,1.000000000000000020816681711721685132943093776703e-02
2.700000000000000732747196252603316679596900939941e-01,-5.976782684184126503978973232733551412820816040039e-01,-6.647904400731371232780020363861694931983947753906e+00,1.000000000000000020816681711721685132943093776703e-02
2.800000000000000821565038222615839913487434387207e-01,-6.620924164439692116701507984544150531291961669922e-01,-6.227747238155155073968671786133199930191040039062e+00,1.000000000000000020816681711721685132943093776703e-02
2.900000000000000910382880192628363147377967834473e-01,-7.220950629282970600897328949940856546163558959961e-01,-5.766094688965292647253590985201299190521240234375e+00,1.000000000000000020816681711721685132943093776703e-02
3.000000000000000999200722162640886381268501281738e-01,-7.772864111017848687268383400805760174989700317383e-01,-5.266022730315038202775212994311004877090454101562e+00,1.000000000000000020816681711721685132943093776703e-02
3.100000000000001088018564132653409615159034729004e-01,-8.272987217349212496486643431126140058040618896484e-01,-4.730863327353490355164922220865264534950256347656e+00,1.000000000000000020816681711721685132943093776703e-02
3.200000000000001176836406102665932849049568176270e-01,-8.717987633799613167440156757947988808155059814453e-01,-4.164182232437162234361949231242761015892028808594e+00,1.000000000000000020816681711721685132943093776703e-02
3.300000000000001265654248072678456082940101623535e-01,-9.104900326882117145288475512643344700336456298828e-01,-3.569755226620275223581302270758897066116333007812e+00,1.000000000000000020816681711721685132943093776703e-02
3.400000000000001354472090042690979316830635070801e-01,-9.431147300089858243055118691700045019388198852539e-01,-2.951542961726083103002338248188607394695281982422e+00,1.000000000000000020816681711721685132943093776703e-02
3.500000000000001443289932012703502550721168518066e-01,-9.694554771068327747585158249421510845422744750977e-01,-2.313664570625825867011826630914583802223205566406e+00,1.000000000000000020816681711721685132943093776703e-02
3.600000000000001532107773982716025784611701965332e-01,-9.893367655519017533904957417689729481935501098633e-01,-1.660370221559351211482180588063783943653106689453e+00,1.000000000000000020816681711721685132943093776703e-02
3.700000000000001620925615952728549018502235412598e-01,-1.002626126132823092262924546957947313785552978516e+00,-9.960127993672738266894839398446492850780487060547e-01,1.000000000000000020816681711721685132943093776703e-02
3.800000000000001709743457922741072252392768859863e-01,-1.009235011500305922993447893531993031501770019531e+00,-3.250189023219421935451123317761812359094619750977e-01,1.000000000000000020816681711721685132943093776703e-02
3.900000000000001798561299892753595486283302307129e-01,-1.009119386160390430262623340240679681301116943359e+00,3.481406521953629429333432199200615286827087402344e-01,1.000000000000000020816681711721685132943093776703e-02
4.000000000000001887379141862766118720173835754395e-01,-1.002280019886213180413392365153413265943527221680e+00,1.018980616650996040561949484981596469879150390625e+00,1.000000000000000020816681711721685132943093776703e-02
4.100000000000001976196983832778641954064369201660e-01,-9.887624825932641581260895691229961812496185302734e-01,1.683031198466129474411445698933675885200500488281e+00,1.000000000000000020816681711721685132943093776703e-02
4.200000000000002065014825802791165187954902648926e-01,-9.686568407122493340466462541371583938598632812500e-01,2.335867842150730844252848328324034810066223144531e+00,1.000000000000000020816681711721685132943093776703e-02
4.300000000000002153832667772803688421845436096191e-01,-9.420970570825950574089802103117108345031738281250e-01,2.973140710026596966741863070637919008731842041016e+00,1.000000000000000020816681711721685132943093776703e-02
4.400000000000002242650509742816211655735969543457e-01,-9.092600983650613866160483667044900357723236083984e-01,3.590603665109995290549704805016517639160156250000e+00,1.000000000000000020816681711721685132943093776703e-02
4.500000000000002331468351712828734889626502990723e-01,-8.703647559207270401060441145091317594051361083984e-01,4.184142563041530316070293338270857930183410644531e+00,1.000000000000000020816681711721685132943093776703e-02
4.600000000000002420286193682841258123517036437988e-01,-8.256701880127785830865150273893959820270538330078e-01,4.749802664554650277750624809414148330688476562500e+00,1.000000000000000020816681711721685132943093776703e-02
4.700000000000002509104035652853781357407569885254e-01,-7.754741930443541653161787507997360080480575561523e-01,5.283814985834015764964988193241879343986511230469e+00,1.000000000000000020816681711721685132943093776703e-02
4.800000000000002597921877622866304591298103332520e-01,-7.201112253377969230072608297632541507482528686523e-01,5.782621411191755989023022266337648034095764160156e+00,1.000000000000000020816681711721685132943093776703e-02
4.900000000000002686739719592878827825188636779785e-01,-6.599501666761132812055734575551468878984451293945e-01,6.242898400736269337585326866246759891510009765625e+00,1.000000000000000020816681711721685132943093776703e-02
5.000000000000002220446049250313080847263336181641e-01,-5.953918684547856443600721831899136304855346679688e-01,6.661579135069744417307902040192857384681701660156e+00,1.000000000000000020816681711721685132943093776703e-02
5.100000000000002309263891220325604081153869628906e-01,-5.268664808205070215763043961487710475921630859375e-01,7.035873949464606980086500698234885931015014648438e+00,1.000000000000000020816681711721685132943093776703e-02
5.200000000000002398081733190338127315044403076172e-01,-4.548305865927093627476551773725077509880065917969e-01,7.363288921366247130606552673270925879478454589844e+00,1.000000000000000020816681711721685132943093776703e-02
5.300000000000002486899575160350650548934936523438e-01,-3.797641590644866838033522071782499551773071289062e-01,7.641642487373727199440054391743615269660949707031e+00,1.000000000000000020816681711721685132943093776703e-02
5.400000000000002575717417130363173782825469970703e-01,-3.021673639530040311740322067635133862495422363281e-01,7.869079978979683254181054508080706000328063964844e+00,1.000000000000000020816681711721685132943093776703e-02
5.500000000000002664535259100375697016716003417969e-01,-2.225572268079132887130811013776110485196113586426e-01,8.044085980217909437328671629074960947036743164062e+00,1.000000000000000020816681711721685132943093776703e-02
5.600000000000002753353101070388220250606536865234e-01,-1.414641880827500752815240048221312463283538818359e-01,8.165494424879669921324421011377125978469848632812e+00,1.000000000000000020816681711721685132943093776703e-02
5.700000000000002842170943040400743484497070312500e-01,-5.942856882278667318697529253768152557313442230225e-02,8.232496366020994216228245932143181562423706054688e+00,1.000000000000000020816681711721685132943093776703e-02
5.800000000000002930988785010413266718387603759766e-01,2.300302948162127880671334878570633009076118469238e-02,8.244645365992669283627947152126580476760864257812e+00,1.000000000000000020816681711721685132943093776703e-02
5.900000000000003019806626980425789952278137207031e-01,1.052813668884998998809265913223498500883579254150e-01,8.201860471079054804022234748117625713348388671875e+00,1.000000000000000020816681711721685132943093776703e-02
6.000000000000003108624468950438313186168670654297e-01,1.868582245780135708823621598639874719083309173584e-01,8.104426750925526334867754485458135604858398437500e+00,1.000000000000000020816681711721685132943093776703e-02
6.100000000000003197442310920450836420059204101562e-01,2.671900576228525281408110458869487047195434570312e-01,7.952993399160139809112024522619321942329406738281e+00,1.000000000000000020816681711721685132943093776703e-02
6.200000000000003286260152890463359653949737548828e-01,3.457416166169199334134987111610826104879379272461e-01,7.748569407864785318906797328963875770568847656250e+00,1.000000000000000020816681711721685132943093776703e-02
6.300000000000003375077994860475882887840270996094e-01,4.219895140314806614156850628205575048923492431641e-01,7.492516844716522683711446006782352924346923828125e+00,1.000000000000000020816681711721685132943093776703e-02
6.400000000000003463895836830488406121730804443359e-01,4.954257115362117880330572461389238014817237854004e-01,7.186541777593129509682512434665113687515258789062e+00,1.000000000000000020816681711721685132943093776703e-02
6.500000000000003552713678800500929355621337890625e-01,5.655609050492018674560767976799979805946350097656e-01,6.832682907111793824128653795924037694931030273438e+00,1.000000000000000020816681711721685132943093776703e-02
6.600000000000003641531520770513452589511871337891e-01,6.319277849613729181044163851765915751457214355469e-01,6.433297982841894580019470595289021730422973632812e+00,1.000000000000000020816681711721685132943093776703e-02
6.700000000000003730349362740525975823402404785156e-01,6.940841498125083219861153338570147752761840820312e-01,5.991048093700140242390261846594512462615966796875e+00,1.000000000000000020816681711721685132943093776703e-02
6.800000000000003819167204710538499057292938232422e-01,7.516158526725149613412213511765003204345703125000e-01,5.508879937200627630033977766288444399833679199219e+00,1.000000000000000020816681711721685132943093776703e-02
6.900000000000003907985046680551022291183471679688e-01,8.041395605962291526225271809380501508712768554688e-01,4.990006185699238372421859821770340204238891601562e+00,1.000000000000000020816681711721685132943093776703e-02
7.000000000000003996802888650563545525074005126953e-01,8.513053087655602091388118424220010638236999511719e-01,4.437884080451484081208946008700877428054809570312e+00,1.000000000000000020816681711721685132943093776703e-02
7.100000000000004085620730620576068758964538574219e-01,8.927988323007566284772451581375207751989364624023e-01,3.856192396110972531175775657175108790397644042969e+00,1.000000000000000020816681711721685132943093776703e-02
7.200000000000004174438572590588591992855072021484e-01,9.283436602039665253016664792085066437721252441406e-01,3.248806929153392974995995245990343391895294189453e+00,1.000000000000000020816681711721685132943093776703e-02
7.300000000000004263256414560601115226745605468750e-01,9.577029574831679159530040124082006514072418212891e-01,2.619774673545991028333901340374723076820373535156e+00,1.000000000000000020816681711721685132943093776703e-02
7.400000000000004352074256530613638460636138916016e-01,9.806811031824126390077367432240862399339675903320e-01,1.973286855729367239575822168262675404548645019531e+00,1.000000000000000020816681711721685132943093776703e-02
7.500000000000004440892098500626161694526672363281e-01,9.971249938039769000752698957512620836496353149414e-01,1.313651008578836654194788025051821023225784301758e+00,1.000000000000000020816681711721685132943093776703e-02
7.600000000000004529709940470638684928417205810547e-01,1.006925063437719369829892457346431910991668701172e+00,6.452622704158560429377189393562730401754379272461e-01,1.000000000000000020816681711721685132943093776703e-02
7.700000000000004618527782440651208162307739257812e-01,1.010016013800518974719011566776316612958908081055e+00,-2.742589969648134839985686994623392820358276367188e-02,1.000000000000000020816681711721685132943093776703e-02
7.800000000000004707345624410663731396198272705078e-01,1.006377249321527722614177946525160223245620727539e+00,-6.999313952505774594214926764834672212600708007812e-01,1.000000000000000020816681711721685132943093776703e-02
7.900000000000004796163466380676254630088806152344e-01,9.960330143742480712987230617727618664503097534180e-01,-1.367773326471577011176350424648262560367584228516e+00,1.000000000000000020816681711721685132943093776703e-02
8.000000000000004884981308350688777863979339599609e-01,9.790522317410309538487922509375493973493576049805e-01,-2.026501876390377709924450755352154374122619628906e+00,1.000000000000000020816681711721685132943093776703e-02
8.100000000000004973799150320701301097869873046875e-01,9.555480433862746370010654572979547083377838134766e-01,-2.671727949882022556948868441395461559295654296875e+00,1.000000000000000020816681711721685132943093776703e-02
8.200000000000005062616992290713824331760406494141e-01,9.256770565981139453626269641972612589597702026367e-01,-3.299152418118543650393803545739501714706420898438e+00,1.000000000000000020816681711721685132943093776703e-02
8.300000000000005151434834260726347565650939941406e-01,8.896383005215146022592875851842109113931655883789e-01,-3.904594763581059169155196286737918853759765625000e+00,1.000000000000000020816681711721685132943093776703e-02
8.400000000000005240252676230738870799541473388672e-01,8.476719000353424293692228275176603347063064575195e-01,-4.484020934769955779586325661512091755867004394531e+00,1.000000000000000020816681711721685132943093776703e-02
8.500000000000005329070518200751394033432006835938e-01,8.000574758093095262267979705939069390296936035156e-01,-5.033570225017752974849827296566218137741088867188e+00,1.000000000000000020816681711721685132943093776703e-02
8.600000000000005417888360170763917267322540283203e-01,7.471122812011581348912159228348173201084136962891e-01,-5.549580996311587632874307018937543034553527832031e+00,1.000000000000000020816681711721685132943093776703e-02
8.700000000000005506706202140776440501213073730469e-01,6.891890884078715195926179148955270648002624511719e-01,-6.028615076727939836587211175356060266494750976562e+00,1.000000000000000020816681711721685132943093776703e-02
8.800000000000005595524044110788963735103607177734e-01,6.266738379554174231955698814999777823686599731445e-01,-6.467480668919884045919843629235401749610900878906e+00,1.000000000000000020816681711721685132943093776703e-02
8.900000000000005684341886080801486968994140625000e-01,5.599830671884010735439574091287795454263687133789e-01,-6.863253617017965879654184391256421804428100585938e+00,1.000000000000000020816681711721685132943093776703e-02
