time,u0,u1,tau
0.00000000e+00,1.00000000e+00,0.00000000e+00,1.00000000e-02
1.00000000e-02,9.96666667e-01,-6.66666667e-01,1.00000000e-02
2.00000000e-02,9.86677778e-01,-1.32888889e+00,1.00000000e-02
3.00000000e-02,9.70099963e-01,-1.98224444e+00,1.00000000e-02
4.00000000e-02,9.47043852e-01,-2.62237027e+00,1.00000000e-02
5.00000000e-02,9.17663336e-01,-3.24499161e+00,1.00000000e-02
6.00000000e-02,8.82154543e-01,-3.84595052e+00,1.00000000e-02
7.00000000e-02,8.40754522e-01,-4.42123372e+00,1.00000000e-02
8.00000000e-02,7.93739670e-01,-4.96699929e+00,1.00000000e-02
9.00000000e-02,7.41423878e-01,-5.47960240e+00,1.00000000e-02
1.00000000e-01,6.84156441e-01,-5.95561965e+00,1.00000000e-02
1.10000000e-01,6.22319723e-01,-6.39187188e+00,1.00000000e-02
1.20000000e-01,5.56326605e-01,-6.78544545e+00,1.00000000e-02
1.30000000e-01,4.86617729e-01,-7.13371170e+00,1.00000000e-02
1.40000000e-01,4.13658553e-01,-7.43434448e+00,1.00000000e-02
1.50000000e-01,3.37936246e-01,-7.68533570e+00,1.00000000e-02
1.60000000e-01,2.59956435e-01,-7.88500875e+00,1.00000000e-02
1.70000000e-01,1.80239826e-01,-8.03202968e+00,1.00000000e-02
1.80000000e-01,9.93187298e-02,-8.12541613e+00,1.00000000e-02
1.90000000e-01,1.77335061e-02,-8.16454389e+00,1.00000000e-02
2.00000000e-01,-6.39710445e-02,-8.14915109e+00,1.00000000e-02
2.10000000e-01,-1.45249319e-01,-8.07933989e+00,1.00000000e-02
2.20000000e-01,-2.25558553e-01,-7.95557587e+00,1.00000000e-02
2.30000000e-01,-3.04362450e-01,-7.77868492e+00,1.00000000e-02
2.40000000e-01,-3.81134758e-01,-7.54984767e+00,1.00000000e-02
2.50000000e-01,-4.55362785e-01,-7.27059167e+00,1.00000000e-02
2.60000000e-01,-5.26550826e-01,-6.94278118e+00,1.00000000e-02
2.70000000e-01,-5.94223468e-01,-6.56860469e+00,1.00000000e-02
2.80000000e-01,-6.57928770e-01,-6.15056036e+00,1.00000000e-02
2.90000000e-01,-7.17241278e-01,-5.69143931e+00,1.00000000e-02
3.00000000e-01,-7.71764867e-01,-5.19430700e+00,1.00000000e-02
3.10000000e-01,-8.21135387e-01,-4.66248273e+00,1.00000000e-02
3.20000000e-01,-8.65023096e-01,-4.09951753e+00,1.00000000e-02
3.30000000e-01,-9.03134861e-01,-3.50917040e+00,1.00000000e-02
3.40000000e-01,-9.35216116e-01,-2.89538326e+00,1.00000000e-02
3.50000000e-01,-9.61052561e-01,-2.26225457e+00,1.00000000e-02
3.60000000e-01,-9.80471599e-01,-1.61401202e+00,1.00000000e-02
3.70000000e-01,-9.93343480e-01,-9.54984246e-01,1.00000000e-02
3.80000000e-01,-9.99582178e-01,-2.89571978e-01,1.00000000e-02
3.90000000e-01,-9.99145957e-01,3.77781380e-01,1.00000000e-02
4.00000000e-01,-9.92037657e-01,1.04261941e+00,1.00000000e-02
4.10000000e-01,-9.78304670e-01,1.70050245e+00,1.00000000e-02
4.20000000e-01,-9.58038630e-01,2.34703723e+00,1.00000000e-02
4.30000000e-01,-9.31374796e-01,2.97790619e+00,1.00000000e-02
4.40000000e-01,-8.98491151e-01,3.58889636e+00,1.00000000e-02
4.50000000e-01,-8.59607217e-01,4.17592748e+00,1.00000000e-02
4.60000000e-01,-8.14982585e-01,4.73507920e+00,1.00000000e-02
4.70000000e-01,-7.64915184e-01,5.26261732e+00,1.00000000e-02
4.80000000e-01,-7.09739294e-01,5.75501872e+00,1.00000000e-02
4.90000000e-01,-6.49823309e-01,6.20899486e+00,1.00000000e-02
5.00000000e-01,-5.85567283e-01,6.62151375e+00,1.00000000e-02
5.10000000e-01,-5.17400254e-01,6.98982022e+00,1.00000000e-02
5.20000000e-01,-4.45777385e-01,7.31145432e+00,1.00000000e-02
5.30000000e-01,-3.71176917e-01,7.58426773e+00,1.00000000e-02
5.40000000e-01,-2.94096983e-01,7.80643812e+00,1.00000000e-02
5.50000000e-01,-2.15052279e-01,7.97648131e+00,1.00000000e-02
5.60000000e-01,-1.34570625e-01,8.09326123e+00,1.00000000e-02
5.70000000e-01,-5.31894435e-02,8.15599744e+00,1.00000000e-02
5.80000000e-01,2.85478290e-02,8.16427041e+00,1.00000000e-02
5.90000000e-01,1.10095374e-01,8.11802429e+00,1.00000000e-02
6.00000000e-01,1.90908632e-01,8.01756729e+00,1.00000000e-02
6.10000000e-01,2.70447943e-01,7.86356965e+00,1.00000000e-02
6.20000000e-01,3.48182146e-01,7.65705912e+00,1.00000000e-02
6.30000000e-01,4.23592130e-01,7.39941416e+00,1.00000000e-02
6.40000000e-01,4.96174298e-01,7.09235469e+00,1.00000000e-02
6.50000000e-01,5.65443931e-01,6.73793064e+00,1.00000000e-02
6.60000000e-01,6.30938424e-01,6.33850825e+00,1.00000000e-02
6.70000000e-01,6.92220378e-01,5.89675428e+00,1.00000000e-02
6.80000000e-01,7.48880520e-01,5.41561818e+00,1.00000000e-02
6.90000000e-01,8.00540433e-01,4.89831244e+00,1.00000000e-02
7.00000000e-01,8.46855090e-01,4.34829111e+00,1.00000000e-02
7.10000000e-01,8.87515150e-01,3.76922674e+00,1.00000000e-02
7.20000000e-01,9.22249034e-01,3.16498589e+00,1.00000000e-02
7.30000000e-01,9.50824729e-01,2.53960325e+00,1.00000000e-02
7.40000000e-01,9.73051346e-01,1.89725475e+00,1.00000000e-02
7.50000000e-01,9.88780389e-01,1.24222967e+00,1.00000000e-02
7.60000000e-01,9.97906751e-01,5.78901977e-01,1.00000000e-02
7.70000000e-01,1.00036942e+00,-8.82988639e-02,1.00000000e-02
7.80000000e-01,9.96151862e-01,-7.54917478e-01,1.00000000e-02
7.90000000e-01,9.85282181e-01,-1.41650233e+00,1.00000000e-02
8.00000000e-01,9.67832883e-01,-2.06863544e+00,1.00000000e-02
8.10000000e-01,9.43920419e-01,-2.70696191e+00,1.00000000e-02
8.20000000e-01,9.13704399e-01,-3.32721898e+00,1.00000000e-02
8.30000000e-01,8.77386528e-01,-3.92526452e+00,1.00000000e-02
8.40000000e-01,8.35209261e-01,-4.49710466e+00,1.00000000e-02
8.50000000e-01,7.87454183e-01,-5.03892048e+00,1.00000000e-02
8.60000000e-01,7.34440131e-01,-5.54709354e+00,1.00000000e-02
8.70000000e-01,6.76521062e-01,-6.01822998e+00,1.00000000e-02
8.80000000e-01,6.14083692e-01,-6.44918325e+00,1.00000000e-02
8.90000000e-01,5.47544914e-01,-6.83707510e+00,1.00000000e-02
9.00000000e-01,4.77349013e-01,-7.17931480e+00,1.00000000e-02
9.10000000e-01,4.03964702e-01,-7.47361642e+00,1.00000000e-02
9.20000000e-01,3.27881989e-01,-7.71801417e+00,1.00000000e-02
9.30000000e-01,2.49608907e-01,-7.91087545e+00,1.00000000e-02
9.40000000e-01,1.69668123e-01,-8.05091180e+00,1.00000000e-02
9.50000000e-01,8.85934445e-02,-8.13718751e+00,1.00000000e-02
9.60000000e-01,6.92625787e-03,-8.16912585e+00,1.00000000e-02
9.70000000e-01,-7.47880881e-02,-8.14651293e+00,1.00000000e-02
9.80000000e-01,-1.56003924e-01,-8.06949917e+00,1.00000000e-02
9.90000000e-01,-2.36178902e-01,-7.93859822e+00,1.00000000e-02
1.00000000e+00,-3.14777622e-01,-7.75468362e+00,1.00000000e-02
1.01000000e+00,-3.91275199e-01,-7.51898293e+00,1.00000000e-02
1.02000000e+00,-4.65160778e-01,-7.23306952e+00,1.00000000e-02
1.03000000e+00,-5.35940937e-01,-6.89885210e+00,1.00000000e-02
1.04000000e+00,-6.03142988e-01,-6.51856197e+00,1.00000000e-02
1.05000000e+00,-6.66318131e-01,-6.09473811e+00,1.00000000e-02
1.06000000e+00,-7.25044452e-01,-5.63021023e+00,1.00000000e-02
1.07000000e+00,-7.78929739e-01,-5.12807989e+00,1.00000000e-02
1.08000000e+00,-8.27614106e-01,-4.59169980e+00,1.00000000e-02
1.09000000e+00,-8.70772390e-01,-4.02465139e+00,1.00000000e-02
1.10000000e+00,-9.08116329e-01,-3.43072096e+00,1.00000000e-02
1.11000000e+00,-9.39396485e-01,-2.81387434e+00,1.00000000e-02
1.12000000e+00,-9.64403906e-01,-2.17823044e+00,1.00000000e-02
1.13000000e+00,-9.82971531e-01,-1.52803373e+00,1.00000000e-02
1.14000000e+00,-9.94975297e-01,-8.67625930e-01,1.00000000e-02
1.15000000e+00,-1.00033497e+00,-2.01416980e-01,1.00000000e-02
1.16000000e+00,-9.99014691e-01,4.66144391e-01,1.00000000e-02
1.17000000e+00,-9.91023199e-01,1.13060037e+00,1.00000000e-02
1.18000000e+00,-9.76413784e-01,1.78751384e+00,1.00000000e-02
1.19000000e+00,-9.55283933e-01,2.43249798e+00,1.00000000e-02
1.20000000e+00,-9.27774674e-01,3.06124561e+00,1.00000000e-02
1.21000000e+00,-8.94069635e-01,3.66955791e+00,1.00000000e-02
1.22000000e+00,-8.54393824e-01,4.25337247e+00,1.00000000e-02
1.23000000e+00,-8.09012120e-01,4.80879044e+00,1.00000000e-02
1.24000000e+00,-7.58227509e-01,5.33210256e+00,1.00000000e-02
1.25000000e+00,-7.02379058e-01,5.81981389e+00,1.00000000e-02
1.26000000e+00,-6.41839656e-01,6.26866721e+00,1.00000000e-02
1.27000000e+00,-5.77013518e-01,6.67566476e+00,1.00000000e-02
1.28000000e+00,-5.08333492e-01,7.03808822e+00,1.00000000e-02
1.29000000e+00,-4.36258165e-01,7.35351692e+00,1.00000000e-02
1.30000000e+00,-3.61268802e-01,7.61984397e+00,1.00000000e-02
1.31000000e+00,-2.83866133e-01,7.83529036e+00,1.00000000e-02
1.32000000e+00,-2.04567009e-01,7.99841682e+00,1.00000000e-02
1.33000000e+00,-1.23900950e-01,8.10813343e+00,1.00000000e-02
1.34000000e+00,-4.24066129e-02,8.16370696e+00,1.00000000e-02
1.35000000e+00,3.93718120e-02,8.16476567e+00,1.00000000e-02
1.36000000e+00,1.20888229e-01,8.11130191e+00,1.00000000e-02
1.37000000e+00,2.01598288e-01,8.00367209e+00,1.00000000e-02
1.38000000e+00,2.80963014e-01,7.84259432e+00,1.00000000e-02
1.39000000e+00,3.58452414e-01,7.62914366e+00,1.00000000e-02
1.40000000e+00,4.33549009e-01,7.36474491e+00,1.00000000e-02
1.41000000e+00,5.05751295e-01,7.05116309e+00,1.00000000e-02
1.42000000e+00,5.74577088e-01,6.69049168e+00,1.00000000e-02
1.43000000e+00,6.39566748e-01,6.28513865e+00,1.00000000e-02
1.44000000e+00,7.00286246e-01,5.83781035e+00,1.00000000e-02
1.45000000e+00,7.56330062e-01,5.35149349e+00,1.00000000e-02
1.46000000e+00,8.07323896e-01,4.82943514e+00,1.00000000e-02
1.47000000e+00,8.52927168e-01,4.27512109e+00,1.00000000e-02
1.48000000e+00,8.92835288e-01,3.69225257e+00,1.00000000e-02
1.49000000e+00,9.26781696e-01,3.08472154e+00,1.00000000e-02
1.50000000e+00,9.54539640e-01,2.45658467e+00,1.00000000e-02
1.51000000e+00,9.75923687e-01,1.81203629e+00,1.00000000e-02
1.52000000e+00,9.90790971e-01,1.15538038e+00,1.00000000e-02
1.53000000e+00,9.99042139e-01,4.91001799e-01,1.00000000e-02
1.54000000e+00,1.00062202e+00,-1.76662966e-01,1.00000000e-02
1.55000000e+00,9.95519980e-01,-8.43155433e-01,1.00000000e-02
1.56000000e+00,9.83770026e-01,-1.50402490e+00,1.00000000e-02
1.57000000e+00,9.65450543e-01,-2.15485817e+00,1.00000000e-02
1.58000000e+00,9.40683793e-01,-2.79130900e+00,1.00000000e-02
1.59000000e+00,9.09635090e-01,-3.40912717e+00,1.00000000e-02
1.60000000e+00,8.72511702e-01,-4.00418681e+00,1.00000000e-02
1.61000000e+00,8.29561461e-01,-4.57251398e+00,1.00000000e-02
1.62000000e+00,7.81071117e-01,-5.11031324e+00,1.00000000e-02
1.63000000e+00,7.27364414e-01,-5.61399295e+00,1.00000000e-02
1.64000000e+00,6.68799936e-01,-6.08018924e+00,1.00000000e-02
1.65000000e+00,6.05768711e-01,-6.50578857e+00,1.00000000e-02
1.66000000e+00,5.38691596e-01,-6.88794842e+00,1.00000000e-02
1.67000000e+00,4.68016473e-01,-7.22411632e+00,1.00000000e-02
1.68000000e+00,3.94215255e-01,-7.51204691e+00,1.00000000e-02
1.69000000e+00,3.17780735e-01,-7.74981693e+00,1.00000000e-02
1.70000000e+00,2.39223297e-01,-7.93583803e+00,1.00000000e-02
1.71000000e+00,1.59067505e-01,-8.06886743e+00,1.00000000e-02
1.72000000e+00,7.78486060e-02,-8.14801621e+00,1.00000000e-02
1.73000000e+00,-3.89105144e-03,-8.17275523e+00,1.00000000e-02
1.74000000e+00,-8.56056335e-02,-8.14291867e+00,1.00000000e-02
1.75000000e+00,-1.66749468e-01,-8.05870519e+00,1.00000000e-02
1.76000000e+00,-2.46780689e-01,-7.92067653e+00,1.00000000e-02
1.77000000e+00,-3.25164851e-01,-7.72975381e+00,1.00000000e-02
1.78000000e+00,-4.01378507e-01,-7.48721140e+00,1.00000000e-02
1.79000000e+00,-4.74912692e-01,-7.19466836e+00,1.00000000e-02
1.80000000e+00,-5.45276334e-01,-6.85407767e+00,1.00000000e-02
1.81000000e+00,-6.11999523e-01,-6.46771319e+00,1.00000000e-02
1.82000000e+00,-6.74636656e-01,-6.03815446e+00,1.00000000e-02
1.83000000e+00,-7.32769412e-01,-5.56826951e+00,1.00000000e-02
1.84000000e+00,-7.86009542e-01,-5.06119567e+00,1.00000000e-02
1.85000000e+00,-8.34001467e-01,-4.52031866e+00,1.00000000e-02
1.86000000e+00,-8.76424649e-01,-3.94924995e+00,1.00000000e-02
1.87000000e+00,-9.12995733e-01,-3.35180268e+00,1.00000000e-02
1.88000000e+00,-9.43470440e-01,-2.73196619e+00,1.00000000e-02
1.89000000e+00,-9.67645201e-01,-2.09387934e+00,1.00000000e-02
1.90000000e+00,-9.85358510e-01,-1.44180294e+00,1.00000000e-02
1.91000000e+00,-9.96492011e-01,-7.80091256e-01,1.00000000e-02
1.92000000e+00,-1.00097128e+00,-1.13162944e-01,1.00000000e-02
1.93000000e+00,-9.98766342e-01,5.54528455e-01,1.00000000e-02
1.94000000e+00,-9.89891837e-01,1.21852425e+00,1.00000000e-02
1.95000000e+00,-9.74406955e-01,1.87439040e+00,1.00000000e-02
1.96000000e+00,-9.52415027e-01,2.51774707e+00,1.00000000e-02
1.97000000e+00,-9.24062840e-01,3.14429793e+00,1.00000000e-02
1.98000000e+00,-8.89539651e-01,3.74985883e+00,1.00000000e-02
1.99000000e+00,-8.49075931e-01,4.33038573e+00,1.00000000e-02
2.00000000e+00,-8.02941820e-01,4.88200173e+00,1.00000000e-02
2.01000000e+00,-7.51445330e-01,5.40102294e+00,1.00000000e-02
2.02000000e+00,-6.94930283e-01,5.88398309e+00,1.00000000e-02
2.03000000e+00,-6.33774018e-01,6.32765666e+00,1.00000000e-02
2.04000000e+00,-5.68384871e-01,6.72908049e+00,1.00000000e-02
2.05000000e+00,-4.99199450e-01,7.08557347e+00,1.00000000e-02
2.06000000e+00,-4.26679717e-01,7.39475452e+00,1.00000000e-02
2.07000000e+00,-3.51309906e-01,7.65455848e+00,1.00000000e-02
2.08000000e+00,-2.73593288e-01,7.86324989e+00,1.00000000e-02
2.09000000e+00,-1.94048812e-01,8.01943459e+00,1.00000000e-02
2.10000000e+00,-1.13207637e-01,8.12206901e+00,1.00000000e-02
2.11000000e+00,-3.16095878e-02,8.17046721e+00,1.00000000e-02
2.12000000e+00,5.02004496e-02,8.16430537e+00,1.00000000e-02
2.13000000e+00,1.31676169e-01,8.10362406e+00,1.00000000e-02
2.14000000e+00,2.12273489e-01,7.98882786e+00,1.00000000e-02
2.15000000e+00,2.91454189e-01,7.82068278e+00,1.00000000e-02
2.16000000e+00,3.68689503e-01,7.60031104e+00,1.00000000e-02
2.17000000e+00,4.43463648e-01,7.32918367e+00,1.00000000e-02
2.18000000e+00,5.15277273e-01,7.00911063e+00,1.00000000e-02
2.19000000e+00,5.83650788e-01,6.64222874e+00,1.00000000e-02
2.20000000e+00,6.48127573e-01,6.23098746e+00,1.00000000e-02
2.21000000e+00,7.08277022e-01,5.77813245e+00,1.00000000e-02
2.22000000e+00,7.63697423e-01,5.28668733e+00,1.00000000e-02
2.23000000e+00,8.14018638e-01,4.75993342e+00,1.00000000e-02
2.24000000e+00,8.58904577e-01,4.20138788e+00,1.00000000e-02
2.25000000e+00,8.98055441e-01,3.61478021e+00,1.00000000e-02
2.26000000e+00,9.31209725e-01,3.00402731e+00,1.00000000e-02
2.27000000e+00,9.58145965e-01,2.37320740e+00,1.00000000e-02
2.28000000e+00,9.78684220e-01,1.72653273e+00,1.00000000e-02
2.29000000e+00,9.92687266e-01,1.06832148e+00,1.00000000e-02
2.30000000e+00,1.00006152e+00,4.02968897e-01,1.00000000e-02
2.31000000e+00,1.00075767e+00,-2.65082015e-01,1.00000000e-02
2.32000000e+00,9.94770995e-01,-9.31370191e-01,1.00000000e-02
2.33000000e+00,9.82141390e-01,-1.59144629e+00,1.00000000e-02
2.34000000e+00,9.62953122e-01,-2.24090239e+00,1.00000000e-02
2.35000000e+00,9.37334254e-01,-2.87540147e+00,1.00000000e-02
2.36000000e+00,9.05455792e-01,-3.49070630e+00,1.00000000e-02
2.37000000e+00,8.67530543e-01,-4.08270780e+00,1.00000000e-02
2.38000000e+00,8.23811697e-01,-4.64745247e+00,1.00000000e-02
2.39000000e+00,7.74591133e-01,-5.18116876e+00,1.00000000e-02
2.40000000e+00,7.20197475e-01,-5.68029229e+00,1.00000000e-02
2.41000000e+00,6.60993894e-01,-6.14148963e+00,1.00000000e-02
2.42000000e+00,5.97375685e-01,-6.56168060e+00,1.00000000e-02
2.43000000e+00,5.29767626e-01,-6.93805878e+00,1.00000000e-02
2.44000000e+00,4.58621146e-01,-7.26811034e+00,1.00000000e-02
2.45000000e+00,3.84411306e-01,-7.54963074e+00,1.00000000e-02
2.46000000e+00,3.07633628e-01,-7.78073950e+00,1.00000000e-02
2.47000000e+00,2.28800787e-01,-7.95989279e+00,1.00000000e-02
2.48000000e+00,1.48439190e-01,-8.08589367e+00,1.00000000e-02
2.49000000e+00,6.70854558e-02,-8.15790015e+00,1.00000000e-02
2.50000000e+00,-1.47171639e-02,-8.17543079e+00,1.00000000e-02
2.51000000e+00,-9.64224146e-02,-8.13836791e+00,1.00000000e-02
2.52000000e+00,-1.77484686e-01,-8.04695841e+00,1.00000000e-02
2.53000000e+00,-2.57362654e-01,-7.90181209e+00,1.00000000e-02
2.54000000e+00,-3.35522899e-01,-7.70389761e+00,1.00000000e-02
2.55000000e+00,-4.11443466e-01,-7.45453602e+00,1.00000000e-02
2.56000000e+00,-4.84617348e-01,-7.15539192e+00,1.00000000e-02
2.57000000e+00,-5.54555876e-01,-6.80846239e+00,1.00000000e-02
2.58000000e+00,-6.20791980e-01,-6.41606359e+00,1.00000000e-02
2.59000000e+00,-6.82883310e-01,-5.98081540e+00,1.00000000e-02
2.60000000e+00,-7.40415186e-01,-5.50562380e+00,1.00000000e-02
2.61000000e+00,-7.93003373e-01,-4.99366160e+00,1.00000000e-02
2.62000000e+00,-8.40296645e-01,-4.44834715e+00,1.00000000e-02
2.63000000e+00,-8.81979127e-01,-3.87332156e+00,1.00000000e-02
2.64000000e+00,-9.17772413e-01,-3.27242440e+00,1.00000000e-02
2.65000000e+00,-9.47437415e-01,-2.64966805e+00,1.00000000e-02
2.66000000e+00,-9.70775971e-01,-2.00921088e+00,1.00000000e-02
2.67000000e+00,-9.87632160e-01,-1.35532953e+00,1.00000000e-02
2.68000000e+00,-9.97893348e-01,-6.92390321e-01,1.00000000e-02
2.69000000e+00,-1.00149094e+00,-2.48201213e-02,1.00000000e-02
2.70000000e+00,-9.98400838e-01,6.42923239e-01,1.00000000e-02
2.71000000e+00,-9.88643603e-01,1.30638072e+00,1.00000000e-02
2.72000000e+00,-9.72284317e-01,1.96112185e+00,1.00000000e-02
2.73000000e+00,-9.49432151e-01,2.60277432e+00,1.00000000e-02
2.74000000e+00,-9.20239634e-01,3.22705318e+00,1.00000000e-02
2.75000000e+00,-8.84901636e-01,3.82978942e+00,1.00000000e-02
2.76000000e+00,-8.43654070e-01,4.40695788e+00,1.00000000e-02
2.77000000e+00,-7.96772311e-01,4.95470407e+00,1.00000000e-02
2.78000000e+00,-7.44569363e-01,5.46936993e+00,1.00000000e-02
2.79000000e+00,-6.87393765e-01,5.94751827e+00,1.00000000e-02
2.80000000e+00,-6.25627270e-01,6.38595572e+00,1.00000000e-02
2.81000000e+00,-5.59682289e-01,6.78175405e+00,1.00000000e-02
2.82000000e+00,-4.89999141e-01,7.13226973e+00,1.00000000e-02
2.83000000e+00,-4.17043113e-01,7.43516159e+00,1.00000000e-02
2.84000000e+00,-3.41301353e-01,7.68840646e+00,1.00000000e-02
2.85000000e+00,-2.63279617e-01,7.89031267e+00,1.00000000e-02
2.86000000e+00,-1.83498892e-01,8.03953138e+00,1.00000000e-02
2.87000000e+00,-1.02491915e-01,8.13506553e+00,1.00000000e-02
2.88000000e+00,-2.07996202e-02,8.17627659e+00,1.00000000e-02
2.89000000e+00,6.10324777e-02,8.16288875e+00,1.00000000e-02
2.90000000e+00,1.42457924e-01,8.09499080e+00,1.00000000e-02
2.91000000e+00,2.22932972e-01,7.97303555e+00,1.00000000e-02
2.92000000e+00,3.01920217e-01,7.79783678e+00,1.00000000e-02
2.93000000e+00,3.78892185e-01,7.57056385e+00,1.00000000e-02
2.94000000e+00,4.53334849e-01,7.29273385e+00,1.00000000e-02
2.95000000e+00,5.24751071e-01,6.96620150e+00,1.00000000e-02
2.96000000e+00,5.92663916e-01,6.59314678e+00,1.00000000e-02
2.97000000e+00,6.56619838e-01,6.17606035e+00,1.00000000e-02
2.98000000e+00,7.16191708e-01,5.71772692e+00,1.00000000e-02
2.99000000e+00,7.70981672e-01,5.22120669e+00,1.00000000e-02
3.00000000e+00,8.20623800e-01,4.68981489e+00,1.00000000e-02
3.01000000e+00,8.64786536e-01,4.12709964e+00,1.00000000e-02
3.02000000e+00,9.03174911e-01,3.53681828e+00,1.00000000e-02
3.03000000e+00,9.35532511e-01,2.92291228e+00,1.00000000e-02
3.04000000e+00,9.61643192e-01,2.28948090e+00,1.00000000e-02
3.05000000e+00,9.81332523e-01,1.64075384e+00,1.00000000e-02
3.06000000e+00,9.94468953e-01,9.81062975e-01,1.00000000e-02
3.07000000e+00,1.00096469e+00,3.14813463e-01,1.00000000e-02
3.08000000e+00,1.00077627e+00,-3.53545706e-01,1.00000000e-02
3.09000000e+00,9.93904894e-01,-1.01955140e+00,1.00000000e-02
3.10000000e+00,9.80396364e-01,-1.67875616e+00,1.00000000e-02
3.11000000e+00,9.60340814e-01,-2.32675788e+00,1.00000000e-02
3.12000000e+00,9.33872100e-01,-2.95922923e+00,1.00000000e-02
3.13000000e+00,9.01166900e-01,-3.57194653e+00,1.00000000e-02
3.14000000e+00,8.62443545e-01,-4.16081798e+00,1.00000000e-02
3.15000000e+00,8.17960554e-01,-4.72191095e+00,1.00000000e-02
3.16000000e+00,7.68014909e-01,-5.25147828e+00,1.00000000e-02
3.17000000e+00,7.12940076e-01,-5.74598329e+00,1.00000000e-02
3.18000000e+00,6.53103777e-01,-6.20212340e+00,1.00000000e-02
3.19000000e+00,5.88905530e-01,-6.61685217e+00,1.00000000e-02
3.20000000e+00,5.20773990e-01,-6.98739969e+00,1.00000000e-02
3.21000000e+00,4.49164080e-01,-7.31129101e+00,1.00000000e-02
3.22000000e+00,3.74553956e-01,-7.58636276e+00,1.00000000e-02
3.23000000e+00,2.97441815e-01,-7.81077753e+00,1.00000000e-02
3.24000000e+00,2.18342567e-01,-7.98303614e+00,1.00000000e-02
3.25000000e+00,1.37784397e-01,-8.10198773e+00,1.00000000e-02
3.26000000e+00,5.63052385e-02,-8.16683737e+00,1.00000000e-02
