time,u0,u1,tau
0.000000e+00,1.000000e+00,0.000000e+00,1.000000e-03
1.000000e-03,1.000000e+00,-6.666667e-02,1.000000e-03
2.000000e-03,9.999333e-01,-1.333333e-01,1.000000e-03
3.000000e-03,9.998000e-01,-1.999956e-01,1.000000e-03
4.000000e-03,9.993334e-01,-3.332895e-01,1.000000e-03
5.000000e-03,9.987084e-01,-4.665388e-01,1.000000e-03
6.000000e-03,9.977198e-01,-5.996865e-01,1.000000e-03
7.000000e-03,9.965455e-01,-7.327081e-01,1.000000e-03
8.000000e-03,9.950801e-01,-8.655813e-01,1.000000e-03
9.000000e-03,9.933490e-01,-9.982506e-01,1.000000e-03
1.000000e-02,9.913526e-01,-1.130692e+00,1.000000e-03
1.100000e-02,9.890913e-01,-1.262868e+00,1.000000e-03
1.200000e-02,9.865656e-01,-1.394741e+00,1.000000e-03
1.300000e-02,9.837763e-01,-1.526278e+00,1.000000e-03
1.400000e-02,9.807238e-01,-1.657443e+00,1.000000e-03
1.500000e-02,9.774090e-01,-1.788201e+00,1.000000e-03
1.600000e-02,9.738328e-01,-1.918517e+00,1.000000e-03
1.700000e-02,9.699959e-01,-2.048357e+00,1.000000e-03
1.800000e-02,9.658993e-01,-2.177684e+00,1.000000e-03
1.900000e-02,9.615441e-01,-2.306466e+00,1.000000e-03
2.000000e-02,9.569313e-01,-2.434667e+00,1.000000e-03
2.100000e-02,9.520622e-01,-2.562253e+00,1.000000e-03
2.200000e-02,9.469379e-01,-2.689189e+00,1.000000e-03
2.300000e-02,9.415597e-01,-2.815443e+00,1.000000e-03
2.400000e-02,9.359290e-01,-2.940979e+00,1.000000e-03
2.500000e-02,9.300473e-01,-3.065765e+00,1.000000e-03
2.600000e-02,9.239160e-01,-3.189766e+00,1.000000e-03
2.700000e-02,9.175367e-01,-3.312950e+00,1.000000e-03
2.800000e-02,9.109110e-01,-3.435283e+00,1.000000e-03
2.900000e-02,9.040407e-01,-3.556733e+00,1.000000e-03
3.000000e-02,8.969275e-01,-3.677267e+00,1.000000e-03
3.100000e-02,8.895733e-01,-3.796853e+00,1.000000e-03
3.200000e-02,8.819799e-01,-3.915458e+00,1.000000e-03
3.300000e-02,8.741492e-01,-4.033051e+00,1.000000e-03
3.400000e-02,8.660834e-01,-4.149599e+00,1.000000e-03
3.500000e-02,8.577846e-01,-4.265073e+00,1.000000e-03
3.600000e-02,8.492547e-01,-4.379439e+00,1.000000e-03
3.700000e-02,8.404962e-01,-4.492669e+00,1.000000e-03
3.800000e-02,8.315112e-01,-4.604731e+00,1.000000e-03
3.900000e-02,8.223021e-01,-4.715594e+00,1.000000e-03
4.000000e-02,8.128713e-01,-4.825230e+00,1.000000e-03
4.100000e-02,8.032212e-01,-4.933609e+00,1.000000e-03
4.200000e-02,7.933543e-01,-5.040701e+00,1.000000e-03
4.300000e-02,7.832733e-01,-5.146477e+00,1.000000e-03
4.400000e-02,7.729808e-01,-5.250910e+00,1.000000e-03
4.500000e-02,7.624793e-01,-5.353970e+00,1.000000e-03
4.600000e-02,7.517718e-01,-5.455629e+00,1.000000e-03
4.700000e-02,7.408610e-01,-5.555862e+00,1.000000e-03
4.800000e-02,7.297497e-01,-5.654639e+00,1.000000e-03
4.900000e-02,7.184408e-01,-5.751935e+00,1.000000e-03
5.000000e-02,7.069374e-01,-5.847724e+00,1.000000e-03
5.100000e-02,6.952424e-01,-5.941978e+00,1.000000e-03
5.200000e-02,6.833589e-01,-6.034674e+00,1.000000e-03
5.300000e-02,6.712900e-01,-6.125784e+00,1.000000e-03
5.400000e-02,6.590389e-01,-6.215286e+00,1.000000e-03
5.500000e-02,6.466088e-01,-6.303155e+00,1.000000e-03
5.600000e-02,6.340030e-01,-6.389366e+00,1.000000e-03
5.700000e-02,6.212248e-01,-6.473896e+00,1.000000e-03
5.800000e-02,6.082775e-01,-6.556723e+00,1.000000e-03
5.900000e-02,5.951645e-01,-6.637823e+00,1.000000e-03
6.000000e-02,5.818894e-01,-6.717175e+00,1.000000e-03
6.100000e-02,5.684556e-01,-6.794757e+00,1.000000e-03
6.200000e-02,5.548666e-01,-6.870548e+00,1.000000e-03
6.300000e-02,5.411260e-01,-6.944528e+00,1.000000e-03
6.400000e-02,5.272375e-01,-7.016675e+00,1.000000e-03
6.500000e-02,5.132047e-01,-7.086970e+00,1.000000e-03
6.600000e-02,4.990313e-01,-7.155395e+00,1.000000e-03
6.700000e-02,4.847211e-01,-7.221930e+00,1.000000e-03
6.800000e-02,4.702778e-01,-7.286557e+00,1.000000e-03
6.900000e-02,4.557052e-01,-7.349258e+00,1.000000e-03
7.000000e-02,4.410073e-01,-7.410016e+00,1.000000e-03
7.100000e-02,4.261878e-01,-7.468815e+00,1.000000e-03
7.200000e-02,4.112508e-01,-7.525637e+00,1.000000e-03
7.300000e-02,3.962001e-01,-7.580469e+00,1.000000e-03
7.400000e-02,3.810397e-01,-7.633293e+00,1.000000e-03
7.500000e-02,3.657737e-01,-7.684096e+00,1.000000e-03
7.600000e-02,3.504061e-01,-7.732864e+00,1.000000e-03
7.700000e-02,3.349410e-01,-7.779583e+00,1.000000e-03
7.800000e-02,3.193824e-01,-7.824240e+00,1.000000e-03
7.900000e-02,3.037346e-01,-7.866823e+00,1.000000e-03
8.000000e-02,2.880015e-01,-7.907319e+00,1.000000e-03
8.100000e-02,2.721875e-01,-7.945718e+00,1.000000e-03
8.200000e-02,2.562967e-01,-7.982008e+00,1.000000e-03
8.300000e-02,2.403333e-01,-8.016179e+00,1.000000e-03
8.400000e-02,2.243016e-01,-8.048222e+00,1.000000e-03
8.500000e-02,2.082058e-01,-8.078128e+00,1.000000e-03
8.600000e-02,1.920501e-01,-8.105888e+00,1.000000e-03
8.700000e-02,1.758390e-01,-8.131493e+00,1.000000e-03
8.800000e-02,1.595766e-01,-8.154937e+00,1.000000e-03
8.900000e-02,1.432674e-01,-8.176213e+00,1.000000e-03
9.000000e-02,1.269156e-01,-8.195315e+00,1.000000e-03
9.100000e-02,1.105256e-01,-8.212236e+00,1.000000e-03
9.200000e-02,9.410178e-02,-8.226972e+00,1.000000e-03
9.300000e-02,7.764848e-02,-8.239519e+00,1.000000e-03
9.400000e-02,6.117009e-02,-8.249871e+00,1.000000e-03
9.500000e-02,4.467099e-02,-8.258027e+00,1.000000e-03
9.600000e-02,2.815558e-02,-8.263983e+00,1.000000e-03
9.700000e-02,1.162826e-02,-8.267736e+00,1.000000e-03
9.800000e-02,-4.906566e-03,-8.269287e+00,1.000000e-03
9.900000e-02,-2.144449e-02,-8.268632e+00,1.000000e-03
1.000000e-01,-3.798111e-02,-8.265773e+00,1.000000e-03
1.010000e-01,-5.451201e-02,-8.260709e+00,1.000000e-03
1.020000e-01,-7.103278e-02,-8.253441e+00,1.000000e-03
1.030000e-01,-8.753902e-02,-8.243970e+00,1.000000e-03
1.040000e-01,-1.040263e-01,-8.232299e+00,1.000000e-03
1.050000e-01,-1.204903e-01,-8.218429e+00,1.000000e-03
1.060000e-01,-1.369265e-01,-8.202364e+00,1.000000e-03
1.070000e-01,-1.533306e-01,-8.184108e+00,1.000000e-03
1.080000e-01,-1.696981e-01,-8.163665e+00,1.000000e-03
1.090000e-01,-1.860248e-01,-8.141039e+00,1.000000e-03
1.100000e-01,-2.023063e-01,-8.116237e+00,1.000000e-03
1.110000e-01,-2.185381e-01,-8.089264e+00,1.000000e-03
1.120000e-01,-2.347160e-01,-8.060126e+00,1.000000e-03
1.130000e-01,-2.508356e-01,-8.028832e+00,1.000000e-03
1.140000e-01,-2.668927e-01,-7.995388e+00,1.000000e-03
1.150000e-01,-2.828828e-01,-7.959804e+00,1.000000e-03
1.160000e-01,-2.988018e-01,-7.922088e+00,1.000000e-03
1.170000e-01,-3.146453e-01,-7.882249e+00,1.000000e-03
1.180000e-01,-3.304092e-01,-7.840298e+00,1.000000e-03
1.190000e-01,-3.460892e-01,-7.796245e+00,1.000000e-03
1.200000e-01,-3.616811e-01,-7.750101e+00,1.000000e-03
1.210000e-01,-3.771807e-01,-7.701879e+00,1.000000e-03
1.220000e-01,-3.925838e-01,-7.651590e+00,1.000000e-03
1.230000e-01,-4.078864e-01,-7.599248e+00,1.000000e-03
1.240000e-01,-4.230843e-01,-7.544865e+00,1.000000e-03
1.250000e-01,-4.381734e-01,-7.488456e+00,1.000000e-03
1.260000e-01,-4.531497e-01,-7.430035e+00,1.000000e-03
1.270000e-01,-4.680092e-01,-7.369617e+00,1.000000e-03
1.280000e-01,-4.827479e-01,-7.307218e+00,1.000000e-03
1.290000e-01,-4.973617e-01,-7.242854e+00,1.000000e-03
1.300000e-01,-5.118469e-01,-7.176542e+00,1.000000e-03
1.310000e-01,-5.261994e-01,-7.108298e+00,1.000000e-03
1.320000e-01,-5.404154e-01,-7.038141e+00,1.000000e-03
1.330000e-01,-5.544912e-01,-6.966088e+00,1.000000e-03
1.340000e-01,-5.684228e-01,-6.892159e+00,1.000000e-03
1.350000e-01,-5.822066e-01,-6.816372e+00,1.000000e-03
1.360000e-01,-5.958388e-01,-6.738748e+00,1.000000e-03
1.370000e-01,-6.093157e-01,-6.659305e+00,1.000000e-03
1.380000e-01,-6.226338e-01,-6.578066e+00,1.000000e-03
1.390000e-01,-6.357894e-01,-6.495052e+00,1.000000e-03
1.400000e-01,-6.487790e-01,-6.410283e+00,1.000000e-03
1.410000e-01,-6.615991e-01,-6.323783e+00,1.000000e-03
1.420000e-01,-6.742461e-01,-6.235573e+00,1.000000e-03
1.430000e-01,-6.867168e-01,-6.145677e+00,1.000000e-03
1.440000e-01,-6.990076e-01,-6.054118e+00,1.000000e-03
1.450000e-01,-7.111154e-01,-5.960920e+00,1.000000e-03
1.460000e-01,-7.230368e-01,-5.866109e+00,1.000000e-03
1.470000e-01,-7.347685e-01,-5.769708e+00,1.000000e-03
1.480000e-01,-7.463075e-01,-5.671742e+00,1.000000e-03
1.490000e-01,-7.576505e-01,-5.572238e+00,1.000000e-03
1.500000e-01,-7.687945e-01,-5.471222e+00,1.000000e-03
1.510000e-01,-7.797366e-01,-5.368720e+00,1.000000e-03
1.520000e-01,-7.904736e-01,-5.264759e+00,1.000000e-03
1.530000e-01,-8.010027e-01,-5.159367e+00,1.000000e-03
1.540000e-01,-8.113210e-01,-5.052571e+00,1.000000e-03
1.550000e-01,-8.214257e-01,-4.944399e+00,1.000000e-03
1.560000e-01,-8.313141e-01,-4.834880e+00,1.000000e-03
1.570000e-01,-8.409835e-01,-4.724042e+00,1.000000e-03
1.580000e-01,-8.504312e-01,-4.611915e+00,1.000000e-03
1.590000e-01,-8.596547e-01,-4.498529e+00,1.000000e-03
1.600000e-01,-8.686514e-01,-4.383912e+00,1.000000e-03
1.610000e-01,-8.774188e-01,-4.268097e+00,1.000000e-03
1.620000e-01,-8.859547e-01,-4.151112e+00,1.000000e-03
1.630000e-01,-8.942566e-01,-4.032989e+00,1.000000e-03
1.640000e-01,-9.023222e-01,-3.913760e+00,1.000000e-03
1.650000e-01,-9.101494e-01,-3.793455e+00,1.000000e-03
1.660000e-01,-9.177360e-01,-3.672106e+00,1.000000e-03
1.670000e-01,-9.250800e-01,-3.549746e+00,1.000000e-03
1.680000e-01,-9.321792e-01,-3.426407e+00,1.000000e-03
1.690000e-01,-9.390317e-01,-3.302121e+00,1.000000e-03
1.700000e-01,-9.456357e-01,-3.176922e+00,1.000000e-03
1.710000e-01,-9.519893e-01,-3.050842e+00,1.000000e-03
1.720000e-01,-9.580907e-01,-2.923915e+00,1.000000e-03
1.730000e-01,-9.639383e-01,-2.796175e+00,1.000000e-03
1.740000e-01,-9.695304e-01,-2.667655e+00,1.000000e-03
1.750000e-01,-9.748655e-01,-2.538389e+00,1.000000e-03
1.760000e-01,-9.799421e-01,-2.408412e+00,1.000000e-03
1.770000e-01,-9.847587e-01,-2.277758e+00,1.000000e-03
1.780000e-01,-9.893140e-01,-2.146462e+00,1.000000e-03
1.790000e-01,-9.936068e-01,-2.014559e+00,1.000000e-03
1.800000e-01,-9.976357e-01,-1.882083e+00,1.000000e-03
1.810000e-01,-1.001400e+00,-1.749070e+00,1.000000e-03
1.820000e-01,-1.004898e+00,-1.615555e+00,1.000000e-03
1.830000e-01,-1.008129e+00,-1.481574e+00,1.000000e-03
1.840000e-01,-1.011092e+00,-1.347162e+00,1.000000e-03
1.850000e-01,-1.013786e+00,-1.212355e+00,1.000000e-03
1.860000e-01,-1.016211e+00,-1.077189e+00,1.000000e-03
1.870000e-01,-1.018365e+00,-9.416994e-01,1.000000e-03
1.880000e-01,-1.020248e+00,-8.059228e-01,1.000000e-03
1.890000e-01,-1.021860e+00,-6.698950e-01,1.000000e-03
1.900000e-01,-1.023200e+00,-5.336523e-01,1.000000e-03
1.910000e-01,-1.024267e+00,-3.972310e-01,1.000000e-03
1.920000e-01,-1.025061e+00,-2.606675e-01,1.000000e-03
1.930000e-01,-1.025583e+00,-1.239980e-01,1.000000e-03
1.940000e-01,-1.025831e+00,1.274104e-02,1.000000e-03
1.950000e-01,-1.025805e+00,1.495131e-01,1.000000e-03
1.960000e-01,-1.025506e+00,2.862818e-01,1.000000e-03
1.970000e-01,-1.024934e+00,4.230106e-01,1.000000e-03
1.980000e-01,-1.024088e+00,5.596630e-01,1.000000e-03
1.990000e-01,-1.022968e+00,6.962027e-01,1.000000e-03
2.000000e-01,-1.021576e+00,8.325931e-01,1.000000e-03
2.010000e-01,-1.019911e+00,9.687979e-01,1.000000e-03
2.020000e-01,-1.017973e+00,1.104781e+00,1.000000e-03
2.030000e-01,-1.015764e+00,1.240505e+00,1.000000e-03
2.040000e-01,-1.013283e+00,1.375935e+00,1.000000e-03
2.050000e-01,-1.010531e+00,1.511034e+00,1.000000e-03
2.060000e-01,-1.007509e+00,1.645766e+00,1.000000e-03
2.070000e-01,-1.004218e+00,1.780095e+00,1.000000e-03
2.080000e-01,-1.000658e+00,1.913986e+00,1.000000e-03
2.090000e-01,-9.968297e-01,2.047402e+00,1.000000e-03
2.100000e-01,-9.927351e-01,2.180307e+00,1.000000e-03
2.110000e-01,-9.883746e-01,2.312667e+00,1.000000e-03
2.120000e-01,-9.837495e-01,2.444445e+00,1.000000e-03
2.130000e-01,-9.788608e-01,2.575606e+00,1.000000e-03
2.140000e-01,-9.737097e-01,2.706116e+00,1.000000e-03
2.150000e-01,-9.682977e-01,2.835939e+00,1.000000e-03
2.160000e-01,-9.626260e-01,2.965040e+00,1.000000e-03
2.170000e-01,-9.566962e-01,3.093385e+00,1.000000e-03
2.180000e-01,-9.505096e-01,3.220939e+00,1.000000e-03
2.190000e-01,-9.440680e-01,3.347669e+00,1.000000e-03
2.200000e-01,-9.373729e-01,3.473540e+00,1.000000e-03
2.210000e-01,-9.304261e-01,3.598518e+00,1.000000e-03
2.220000e-01,-9.232293e-01,3.722570e+00,1.000000e-03
2.230000e-01,-9.157845e-01,3.845662e+00,1.000000e-03
2.240000e-01,-9.080934e-01,3.967762e+00,1.000000e-03
2.250000e-01,-9.001582e-01,4.088836e+00,1.000000e-03
2.260000e-01,-8.919809e-01,4.208853e+00,1.000000e-03
2.270000e-01,-8.835635e-01,4.327779e+00,1.000000e-03
2.280000e-01,-8.749082e-01,4.445583e+00,1.000000e-03
2.290000e-01,-8.660174e-01,4.562233e+00,1.000000e-03
2.300000e-01,-8.568933e-01,4.677697e+00,1.000000e-03
2.310000e-01,-8.475383e-01,4.791945e+00,1.000000e-03
2.320000e-01,-8.379547e-01,4.904946e+00,1.000000e-03
2.330000e-01,-8.281452e-01,5.016668e+00,1.000000e-03
2.340000e-01,-8.181123e-01,5.127083e+00,1.000000e-03
2.350000e-01,-8.078585e-01,5.236161e+00,1.000000e-03
2.360000e-01,-7.973866e-01,5.343871e+00,1.000000e-03
2.370000e-01,-7.866992e-01,5.450185e+00,1.000000e-03
2.380000e-01,-7.757993e-01,5.555074e+00,1.000000e-03
2.390000e-01,-7.646896e-01,5.658510e+00,1.000000e-03
2.400000e-01,-7.533730e-01,5.760464e+00,1.000000e-03
2.410000e-01,-7.418525e-01,5.860910e+00,1.000000e-03
2.420000e-01,-7.301311e-01,5.959820e+00,1.000000e-03
2.430000e-01,-7.182119e-01,6.057167e+00,1.000000e-03
2.440000e-01,-7.060981e-01,6.152925e+00,1.000000e-03
2.450000e-01,-6.937927e-01,6.247067e+00,1.000000e-03
2.460000e-01,-6.812991e-01,6.339569e+00,1.000000e-03
2.470000e-01,-6.686204e-01,6.430406e+00,1.000000e-03
2.480000e-01,-6.557601e-01,6.519551e+00,1.000000e-03
2.490000e-01,-6.427215e-01,6.606983e+00,1.000000e-03
2.500000e-01,-6.295080e-01,6.692675e+00,1.000000e-03
2.510000e-01,-6.161232e-01,6.776606e+00,1.000000e-03
2.520000e-01,-6.025705e-01,6.858753e+00,1.000000e-03
2.530000e-01,-5.888535e-01,6.939092e+00,1.000000e-03
2.540000e-01,-5.749759e-01,7.017603e+00,1.000000e-03
2.550000e-01,-5.609412e-01,7.094263e+00,1.000000e-03
2.560000e-01,-5.467532e-01,7.169053e+00,1.000000e-03
2.570000e-01,-5.324157e-01,7.241950e+00,1.000000e-03
2.580000e-01,-5.179324e-01,7.312936e+00,1.000000e-03
2.590000e-01,-5.033070e-01,7.381991e+00,1.000000e-03
2.600000e-01,-4.885436e-01,7.449096e+00,1.000000e-03
2.610000e-01,-4.736460e-01,7.514232e+00,1.000000e-03
2.620000e-01,-4.586181e-01,7.577383e+00,1.000000e-03
2.630000e-01,-4.434640e-01,7.638529e+00,1.000000e-03
2.640000e-01,-4.281875e-01,7.697655e+00,1.000000e-03
2.650000e-01,-4.127928e-01,7.754745e+00,1.000000e-03
2.660000e-01,-3.972839e-01,7.809782e+00,1.000000e-03
2.670000e-01,-3.816649e-01,7.862751e+00,1.000000e-03
2.680000e-01,-3.659401e-01,7.913637e+00,1.000000e-03
2.690000e-01,-3.501134e-01,7.962427e+00,1.000000e-03
2.700000e-01,-3.341892e-01,8.009107e+00,1.000000e-03
2.710000e-01,-3.181716e-01,8.053664e+00,1.000000e-03
2.720000e-01,-3.020649e-01,8.096085e+00,1.000000e-03
2.730000e-01,-2.858733e-01,8.136359e+00,1.000000e-03
2.740000e-01,-2.696012e-01,8.174473e+00,1.000000e-03
2.750000e-01,-2.532529e-01,8.210419e+00,1.000000e-03
2.760000e-01,-2.368327e-01,8.244184e+00,1.000000e-03
2.770000e-01,-2.203450e-01,8.275761e+00,1.000000e-03
2.780000e-01,-2.037941e-01,8.305139e+00,1.000000e-03
2.790000e-01,-1.871845e-01,8.332310e+00,1.000000e-03
2.800000e-01,-1.705205e-01,8.357267e+00,1.000000e-03
2.810000e-01,-1.538066e-01,8.380002e+00,1.000000e-03
2.820000e-01,-1.370473e-01,8.400509e+00,1.000000e-03
2.830000e-01,-1.202469e-01,8.418781e+00,1.000000e-03
2.840000e-01,-1.034100e-01,8.434813e+00,1.000000e-03
2.850000e-01,-8.654106e-02,8.448601e+00,1.000000e-03
2.860000e-01,-6.964452e-02,8.460139e+00,1.000000e-03
2.870000e-01,-5.272490e-02,8.469424e+00,1.000000e-03
2.880000e-01,-3.578671e-02,8.476454e+00,1.000000e-03
2.890000e-01,-1.883447e-02,8.481225e+00,1.000000e-03
2.900000e-01,-1.872678e-03,8.483736e+00,1.000000e-03
2.910000e-01,1.509413e-02,8.483986e+00,1.000000e-03
2.920000e-01,3.206144e-02,8.481973e+00,1.000000e-03
2.930000e-01,4.902472e-02,8.477699e+00,1.000000e-03
2.940000e-01,6.597946e-02,8.471162e+00,1.000000e-03
2.950000e-01,8.292112e-02,8.462365e+00,1.000000e-03
2.960000e-01,9.984519e-02,8.451309e+00,1.000000e-03
2.970000e-01,1.167471e-01,8.437997e+00,1.000000e-03
2.980000e-01,1.336225e-01,8.422431e+00,1.000000e-03
2.990000e-01,1.504667e-01,8.404616e+00,1.000000e-03
3.000000e-01,1.672753e-01,8.384554e+00,1.000000e-03
3.010000e-01,1.840437e-01,8.362252e+00,1.000000e-03
3.020000e-01,2.007676e-01,8.337713e+00,1.000000e-03
3.030000e-01,2.174423e-01,8.310945e+00,1.000000e-03
3.040000e-01,2.340636e-01,8.281954e+00,1.000000e-03
3.050000e-01,2.506268e-01,8.250747e+00,1.000000e-03
3.060000e-01,2.671277e-01,8.217331e+00,1.000000e-03
3.070000e-01,2.835617e-01,8.181715e+00,1.000000e-03
3.080000e-01,2.999245e-01,8.143908e+00,1.000000e-03
3.090000e-01,3.162116e-01,8.103920e+00,1.000000e-03
3.100000e-01,3.324188e-01,8.061760e+00,1.000000e-03
3.110000e-01,3.485417e-01,8.017439e+00,1.000000e-03
3.120000e-01,3.645760e-01,7.970969e+00,1.000000e-03
3.130000e-01,3.805173e-01,7.922360e+00,1.000000e-03
3.140000e-01,3.963614e-01,7.871627e+00,1.000000e-03
3.150000e-01,4.121040e-01,7.818780e+00,1.000000e-03
3.160000e-01,4.277410e-01,7.763835e+00,1.000000e-03
3.170000e-01,4.432680e-01,7.706805e+00,1.000000e-03
3.180000e-01,4.586810e-01,7.647705e+00,1.000000e-03
3.190000e-01,4.739758e-01,7.586550e+00,1.000000e-03
3.200000e-01,4.891483e-01,7.523355e+00,1.000000e-03
3.210000e-01,5.041945e-01,7.458138e+00,1.000000e-03
3.220000e-01,5.191101e-01,7.390915e+00,1.000000e-03
3.230000e-01,5.338914e-01,7.321703e+00,1.000000e-03
3.240000e-01,5.485342e-01,7.250520e+00,1.000000e-03
3.250000e-01,5.630347e-01,7.177385e+00,1.000000e-03
3.260000e-01,5.773889e-01,7.102316e+00,1.000000e-03
3.270000e-01,5.915930e-01,7.025334e+00,1.000000e-03
3.280000e-01,6.056431e-01,6.946458e+00,1.000000e-03
3.290000e-01,6.195354e-01,6.865709e+00,1.000000e-03
3.300000e-01,6.332663e-01,6.783107e+00,1.000000e-03
3.310000e-01,6.468320e-01,6.698675e+00,1.000000e-03
3.320000e-01,6.602288e-01,6.612434e+00,1.000000e-03
3.330000e-01,6.734532e-01,6.524407e+00,1.000000e-03
3.340000e-01,6.865015e-01,6.434617e+00,1.000000e-03
3.350000e-01,6.993702e-01,6.343086e+00,1.000000e-03
3.360000e-01,7.120558e-01,6.249841e+00,1.000000e-03
3.370000e-01,7.245550e-01,6.154904e+00,1.000000e-03
3.380000e-01,7.368643e-01,6.058300e+00,1.000000e-03
3.390000e-01,7.489805e-01,5.960055e+00,1.000000e-03
3.400000e-01,7.609001e-01,5.860195e+00,1.000000e-03
3.410000e-01,7.726200e-01,5.758745e+00,1.000000e-03
3.420000e-01,7.841371e-01,5.655733e+00,1.000000e-03
3.430000e-01,7.954481e-01,5.551186e+00,1.000000e-03
3.440000e-01,8.065500e-01,5.445130e+00,1.000000e-03
3.450000e-01,8.174398e-01,5.337594e+00,1.000000e-03
3.460000e-01,8.281146e-01,5.228607e+00,1.000000e-03
3.470000e-01,8.385714e-01,5.118196e+00,1.000000e-03
3.480000e-01,8.488074e-01,5.006390e+00,1.000000e-03
3.490000e-01,8.588198e-01,4.893220e+00,1.000000e-03
3.500000e-01,8.686058e-01,4.778716e+00,1.000000e-03
3.510000e-01,8.781629e-01,4.662906e+00,1.000000e-03
3.520000e-01,8.874883e-01,4.545822e+00,1.000000e-03
3.530000e-01,8.965796e-01,4.427495e+00,1.000000e-03
3.540000e-01,9.054342e-01,4.307956e+00,1.000000e-03
3.550000e-01,9.140498e-01,4.187236e+00,1.000000e-03
3.560000e-01,9.224239e-01,4.065367e+00,1.000000e-03
3.570000e-01,9.305543e-01,3.942382e+00,1.000000e-03
3.580000e-01,9.384388e-01,3.818313e+00,1.000000e-03
3.590000e-01,9.460751e-01,3.693193e+00,1.000000e-03
3.600000e-01,9.534612e-01,3.567054e+00,1.000000e-03
3.610000e-01,9.605950e-01,3.439931e+00,1.000000e-03
3.620000e-01,9.674746e-01,3.311857e+00,1.000000e-03
3.630000e-01,9.740980e-01,3.182865e+00,1.000000e-03
3.640000e-01,9.804635e-01,3.052990e+00,1.000000e-03
3.650000e-01,9.865692e-01,2.922267e+00,1.000000e-03
3.660000e-01,9.924135e-01,2.790729e+00,1.000000e-03
3.670000e-01,9.979947e-01,2.658413e+00,1.000000e-03
3.680000e-01,1.003311e+00,2.525352e+00,1.000000e-03
3.690000e-01,1.008362e+00,2.391582e+00,1.000000e-03
3.700000e-01,1.013145e+00,2.257139e+00,1.000000e-03
3.710000e-01,1.017659e+00,2.122059e+00,1.000000e-03
3.720000e-01,1.021903e+00,1.986376e+00,1.000000e-03
3.730000e-01,1.025875e+00,1.850128e+00,1.000000e-03
3.740000e-01,1.029576e+00,1.713350e+00,1.000000e-03
3.750000e-01,1.033002e+00,1.576078e+00,1.000000e-03
