time,u0,u1,tau
0.000000e+00,1.000000e+00,0.000000e+00,1.000000e-02
1.000000e-02,1.000000e+00,-6.666667e-01,1.000000e-02
2.000000e-02,9.933333e-01,-1.333333e+00,1.000000e-02
3.000000e-02,9.800000e-01,-1.995556e+00,1.000000e-02
4.000000e-02,9.335605e-01,-3.288829e+00,1.000000e-02
5.000000e-02,8.720012e-01,-4.537823e+00,1.000000e-02
6.000000e-02,7.759879e-01,-5.686615e+00,1.000000e-02
7.000000e-02,6.652436e-01,-6.713482e+00,1.000000e-02
8.000000e-02,5.314522e-01,-7.601588e+00,1.000000e-02
9.000000e-02,3.799384e-01,-8.303226e+00,1.000000e-02
1.000000e-01,2.146537e-01,-8.807059e+00,1.000000e-02
1.100000e-01,3.920874e-02,-9.091085e+00,1.000000e-02
1.200000e-01,-1.418078e-01,-9.141909e+00,1.000000e-02
1.300000e-01,-3.238250e-01,-8.952614e+00,1.000000e-02
1.400000e-01,-5.020548e-01,-8.521640e+00,1.000000e-02
1.500000e-01,-6.716777e-01,-7.854137e+00,1.000000e-02
1.600000e-01,-8.279901e-01,-6.961546e+00,1.000000e-02
1.700000e-01,-9.665097e-01,-5.861558e+00,1.000000e-02
1.800000e-01,-1.083109e+00,-4.577823e+00,1.000000e-02
1.900000e-01,-1.174133e+00,-3.139458e+00,1.000000e-02
2.000000e-01,-1.236504e+00,-1.580436e+00,1.000000e-02
2.100000e-01,-1.267824e+00,6.119311e-02,1.000000e-02
2.200000e-01,-1.266452e+00,1.744201e+00,1.000000e-02
2.300000e-01,-1.231567e+00,3.425182e+00,1.000000e-02
2.400000e-01,-1.163215e+00,5.059652e+00,1.000000e-02
2.500000e-01,-1.062325e+00,6.603186e+00,1.000000e-02
2.600000e-01,-9.307118e-01,8.012604e+00,1.000000e-02
2.700000e-01,-7.710501e-01,9.247137e+00,1.000000e-02
2.800000e-01,-5.868253e-01,1.026957e+01,1.000000e-02
2.900000e-01,-3.822640e-01,1.104733e+01,1.000000e-02
3.000000e-01,-1.622406e-01,1.155344e+01,1.000000e-02
3.100000e-01,6.783396e-02,1.176741e+01,1.000000e-02
3.200000e-01,3.021412e-01,1.167593e+01,1.000000e-02
3.300000e-01,5.345986e-01,1.127343e+01,1.000000e-02
3.400000e-01,7.590130e-01,1.056239e+01,1.000000e-02
3.500000e-01,9.692419e-01,9.553533e+00,1.000000e-02
3.600000e-01,1.159357e+00,8.265723e+00,1.000000e-02
3.700000e-01,1.323805e+00,6.725695e+00,1.000000e-02
3.800000e-01,1.457568e+00,4.967550e+00,1.000000e-02
3.900000e-01,1.556307e+00,3.032051e+00,1.000000e-02
4.000000e-01,1.616493e+00,9.657124e-01,1.000000e-02
4.100000e-01,1.635526e+00,-1.180272e+00,1.000000e-02
4.200000e-01,1.611826e+00,-3.351262e+00,1.000000e-02
4.300000e-01,1.544900e+00,-5.490527e+00,1.000000e-02
4.400000e-01,1.435384e+00,-7.540690e+00,1.000000e-02
4.500000e-01,1.285058e+00,-9.445223e+00,1.000000e-02
4.600000e-01,1.096826e+00,-1.114997e+01,1.000000e-02
4.700000e-01,8.746722e-01,-1.260464e+01,1.000000e-02
4.800000e-01,6.235796e-01,-1.376422e+01,1.000000e-02
4.900000e-01,3.494275e-01,-1.459034e+01,1.000000e-02
5.000000e-01,5.885865e-02,-1.505243e+01,1.000000e-02
5.100000e-01,-2.408762e-01,-1.512874e+01,1.000000e-02
5.200000e-01,-5.420942e-01,-1.480715e+01,1.000000e-02
5.300000e-01,-8.368720e-01,-1.408573e+01,1.000000e-02
5.400000e-01,-1.117249e+00,-1.297309e+01,1.000000e-02
5.500000e-01,-1.375437e+00,-1.148839e+01,1.000000e-02
5.600000e-01,-1.604030e+00,-9.661126e+00,1.000000e-02
5.700000e-01,-1.796210e+00,-7.530633e+00,1.000000e-02
5.800000e-01,-1.945944e+00,-5.145281e+00,1.000000e-02
5.900000e-01,-2.048162e+00,-2.561450e+00,1.000000e-02
6.000000e-01,-2.098918e+00,1.577609e-01,1.000000e-02
6.100000e-01,-2.095522e+00,2.944020e+00,1.000000e-02
6.200000e-01,-2.036646e+00,5.725433e+00,1.000000e-02
6.300000e-01,-1.922393e+00,8.428351e+00,1.000000e-02
6.400000e-01,-1.754332e+00,1.097927e+01,1.000000e-02
6.500000e-01,-1.535498e+00,1.330679e+01,1.000000e-02
6.600000e-01,-1.270343e+00,1.534352e+01,1.000000e-02
6.700000e-01,-9.646655e-01,1.702802e+01,1.000000e-02
6.800000e-01,-6.254824e-01,1.830653e+01,1.000000e-02
6.900000e-01,-2.608824e-01,1.913463e+01,1.000000e-02
7.000000e-01,1.201626e-01,1.947863e+01,1.000000e-02
7.100000e-01,5.080113e-01,1.931675e+01,1.000000e-02
7.200000e-01,8.925896e-01,1.864003e+01,1.000000e-02
7.300000e-01,1.263646e+00,1.745288e+01,1.000000e-02
7.400000e-01,1.611019e+00,1.577329e+01,1.000000e-02
7.500000e-01,1.924905e+00,1.363278e+01,1.000000e-02
7.600000e-01,2.196131e+00,1.107585e+01,1.000000e-02
7.700000e-01,2.416410e+00,8.159177e+00,1.000000e-02
7.800000e-01,2.578584e+00,4.950445e+00,1.000000e-02
7.900000e-01,2.676846e+00,1.526818e+00,1.000000e-02
8.000000e-01,2.706924e+00,-2.026835e+00,1.000000e-02
8.100000e-01,2.666237e+00,-5.619984e+00,1.000000e-02
8.200000e-01,2.554007e+00,-9.158687e+00,1.000000e-02
8.300000e-01,2.371327e+00,-1.254798e+01,1.000000e-02
8.400000e-01,2.121181e+00,-1.569435e+01,1.000000e-02
8.500000e-01,1.808414e+00,-1.850828e+01,1.000000e-02
8.600000e-01,1.439654e+00,-2.090668e+01,1.000000e-02
8.700000e-01,1.023180e+00,-2.281526e+01,1.000000e-02
8.800000e-01,5.687533e-01,-2.417075e+01,1.000000e-02
8.900000e-01,8.739051e-02,-2.492283e+01,1.000000e-02
9.000000e-01,-4.088895e-01,-2.503581e+01,1.000000e-02
9.100000e-01,-9.073591e-01,-2.448998e+01,1.000000e-02
9.200000e-01,-1.394900e+00,-2.328251e+01,1.000000e-02
9.300000e-01,-1.858338e+00,-2.142798e+01,1.000000e-02
9.400000e-01,-2.284791e+00,-1.895847e+01,1.000000e-02
9.500000e-01,-2.662020e+00,-1.592315e+01,1.000000e-02
9.600000e-01,-2.978763e+00,-1.238743e+01,1.000000e-02
9.700000e-01,-3.225064e+00,-8.431675e+00,1.000000e-02
9.800000e-01,-3.392566e+00,-4.149436e+00,1.000000e-02
9.900000e-01,-3.474779e+00,3.546405e-01,1.000000e-02
1.000000e+00,-3.467296e+00,4.967308e+00,1.000000e-02
1.010000e+00,-3.367966e+00,9.569482e+00,1.000000e-02
1.020000e+00,-3.177007e+00,1.403924e+01,1.000000e-02
1.030000e+00,-2.897069e+00,1.825496e+01,1.000000e-02
1.040000e+00,-2.533221e+00,2.209856e+01,1.000000e-02
1.050000e+00,-2.092882e+00,2.545868e+01,1.000000e-02
1.060000e+00,-1.585689e+00,2.823386e+01,1.000000e-02
1.070000e+00,-1.023297e+00,3.033541e+01,1.000000e-02
1.080000e+00,-4.191265e-01,3.169015e+01,1.000000e-02
1.090000e+00,2.119463e-01,3.224269e+01,1.000000e-02
1.100000e+00,8.539448e-01,3.195742e+01,1.000000e-02
1.110000e+00,1.490185e+00,3.081995e+01,1.000000e-02
1.120000e+00,2.103699e+00,2.883802e+01,1.000000e-02
1.130000e+00,2.677673e+00,2.604190e+01,1.000000e-02
1.140000e+00,3.195901e+00,2.248417e+01,1.000000e-02
1.150000e+00,3.643224e+00,1.823894e+01,1.000000e-02
1.160000e+00,4.005961e+00,1.340041e+01,1.000000e-02
1.170000e+00,4.272307e+00,8.080942e+00,1.000000e-02
1.180000e+00,4.432699e+00,2.408547e+00,1.000000e-02
1.190000e+00,4.480121e+00,-3.476077e+00,1.000000e-02
1.200000e+00,4.410361e+00,-9.422940e+00,1.000000e-02
1.210000e+00,4.222195e+00,-1.527648e+01,1.000000e-02
1.220000e+00,3.917494e+00,-2.087952e+01,1.000000e-02
1.230000e+00,3.501261e+00,-2.607739e+01,1.000000e-02
1.240000e+00,2.981577e+00,-3.072209e+01,1.000000e-02
1.250000e+00,2.369470e+00,-3.467636e+01,1.000000e-02
1.260000e+00,1.678698e+00,-3.781759e+01,1.000000e-02
1.270000e+00,9.254615e-01,-4.004144e+01,1.000000e-02
1.280000e+00,1.280343e-01,-4.126512e+01,1.000000e-02
1.290000e+00,-6.936625e-01,-4.143008e+01,1.000000e-02
1.300000e+00,-1.518544e+00,-4.050424e+01,1.000000e-02
1.310000e+00,-2.324890e+00,-3.848348e+01,1.000000e-02
1.320000e+00,-3.090901e+00,-3.539256e+01,1.000000e-02
1.330000e+00,-3.795272e+00,-3.128515e+01,1.000000e-02
1.340000e+00,-4.417769e+00,-2.624320e+01,1.000000e-02
1.350000e+00,-4.939795e+00,-2.037551e+01,1.000000e-02
1.360000e+00,-5.344918e+00,-1.381554e+01,1.000000e-02
1.370000e+00,-5.619368e+00,-6.718581e+00,1.000000e-02
1.380000e+00,-5.752469e+00,7.418490e-01,1.000000e-02
1.390000e+00,-5.736999e+00,8.378063e+00,1.000000e-02
1.400000e+00,-5.569478e+00,1.599282e+01,1.000000e-02
1.410000e+00,-5.250350e+00,2.338426e+01,1.000000e-02
1.420000e+00,-4.784080e+00,3.035118e+01,1.000000e-02
1.430000e+00,-4.179140e+00,3.669828e+01,1.000000e-02
1.440000e+00,-3.447888e+00,4.224157e+01,1.000000e-02
1.450000e+00,-2.606345e+00,4.681346e+01,1.000000e-02
1.460000e+00,-1.673868e+00,5.026766e+01,1.000000e-02
1.470000e+00,-6.727232e-01,5.248360e+01,1.000000e-02
1.480000e+00,3.724246e-01,5.337026e+01,1.000000e-02
1.490000e+00,1.435101e+00,5.286941e+01,1.000000e-02
1.500000e+00,2.487676e+00,5.095792e+01,1.000000e-02
1.510000e+00,3.502061e+00,4.764940e+01,1.000000e-02
1.520000e+00,4.450443e+00,4.299469e+01,1.000000e-02
1.530000e+00,5.306024e+00,3.708159e+01,1.000000e-02
1.540000e+00,6.043758e+00,3.003344e+01,1.000000e-02
1.550000e+00,6.641059e+00,2.200681e+01,1.000000e-02
1.560000e+00,7.078458e+00,1.318825e+01,1.000000e-02
1.570000e+00,7.340208e+00,3.790121e+00,1.000000e-02
1.580000e+00,7.414788e+00,-5.954339e+00,1.000000e-02
1.590000e+00,7.295324e+00,-1.579662e+01,1.000000e-02
1.600000e+00,6.979894e+00,-2.547912e+01,1.000000e-02
1.610000e+00,6.471701e+00,-3.474173e+01,1.000000e-02
1.620000e+00,5.779130e+00,-4.332859e+01,1.000000e-02
1.630000e+00,4.915660e+00,-5.099503e+01,1.000000e-02
1.640000e+00,3.899639e+00,-5.751430e+01,1.000000e-02
1.650000e+00,2.753927e+00,-6.268403e+01,1.000000e-02
1.660000e+00,1.505413e+00,-6.633222e+01,1.000000e-02
1.670000e+00,1.844074e-01,-6.832259e+01,1.000000e-02
1.680000e+00,-1.176071e+00,-6.855910e+01,1.000000e-02
1.690000e+00,-2.541094e+00,-6.698958e+01,1.000000e-02
1.700000e+00,-3.874699e+00,-6.360819e+01,1.000000e-02
1.710000e+00,-5.140811e+00,-5.845689e+01,1.000000e-02
1.720000e+00,-6.304195e+00,-5.162546e+01,1.000000e-02
1.730000e+00,-7.331410e+00,-4.325049e+01,1.000000e-02
1.740000e+00,-8.191735e+00,-3.351292e+01,1.000000e-02
1.750000e+00,-8.858059e+00,-2.263447e+01,1.000000e-02
1.760000e+00,-9.307688e+00,-1.087280e+01,1.000000e-02
1.770000e+00,-9.523062e+00,1.484314e+00,1.000000e-02
1.780000e+00,-9.492351e+00,1.412584e+01,1.000000e-02
1.790000e+00,-9.209923e+00,2.672506e+01,1.000000e-02
1.800000e+00,-8.676650e+00,3.894783e+01,1.000000e-02
1.810000e+00,-7.900060e+00,5.046122e+01,1.000000e-02
1.820000e+00,-6.894306e+00,6.094229e+01,1.000000e-02
1.830000e+00,-5.679972e+00,7.008698e+01,1.000000e-02
1.840000e+00,-4.283694e+00,7.761854e+01,1.000000e-02
1.850000e+00,-2.737615e+00,8.329566e+01,1.000000e-02
1.860000e+00,-1.078680e+00,8.691970e+01,1.000000e-02
1.870000e+00,6.522173e-01,8.834109e+01,1.000000e-02
1.880000e+00,2.411208e+00,8.746457e+01,1.000000e-02
1.890000e+00,4.152531e+00,8.425313e+01,1.000000e-02
1.900000e+00,5.829697e+00,7.873050e+01,1.000000e-02
1.910000e+00,7.396691e+00,7.098213e+01,1.000000e-02
1.920000e+00,8.809207e+00,6.115454e+01,1.000000e-02
1.930000e+00,1.002586e+01,4.945306e+01,1.000000e-02
1.940000e+00,1.100937e+01,3.613790e+01,1.000000e-02
1.950000e+00,1.172762e+01,2.151876e+01,1.000000e-02
1.960000e+00,1.215469e+01,5.947938e+00,1.000000e-02
1.970000e+00,1.227165e+01,-1.018792e+01,1.000000e-02
1.980000e+00,1.206730e+01,-2.647709e+01,1.000000e-02
1.990000e+00,1.153862e+01,-4.249301e+01,1.000000e-02
2.000000e+00,1.069108e+01,-5.780517e+01,1.000000e-02
2.010000e+00,9.538758e+00,-7.199040e+01,1.000000e-02
2.020000e+00,8.104111e+00,-8.464421e+01,1.000000e-02
2.030000e+00,6.417672e+00,-9.539201e+01,1.000000e-02
2.040000e+00,4.517425e+00,-1.038998e+02,1.000000e-02
2.050000e+00,2.447999e+00,-1.098840e+02,1.000000e-02
2.060000e+00,2.596649e-01,-1.131204e+02,1.000000e-02
2.070000e+00,-1.992847e+00,-1.134513e+02,1.000000e-02
2.080000e+00,-4.251676e+00,-1.107921e+02,1.000000e-02
2.090000e+00,-6.457280e+00,-1.051347e+02,1.000000e-02
2.100000e+00,-8.549964e+00,-9.654998e+01,1.000000e-02
2.110000e+00,-1.047145e+01,-8.518834e+01,1.000000e-02
2.120000e+00,-1.216648e+01,-7.127733e+01,1.000000e-02
2.130000e+00,-1.358429e+01,-5.511790e+01,1.000000e-02
2.140000e+00,-1.468017e+01,-3.707830e+01,1.000000e-02
2.150000e+00,-1.541670e+01,-1.758614e+01,1.000000e-02
2.160000e+00,-1.576501e+01,2.881401e+00,1.000000e-02
2.170000e+00,-1.570572e+01,2.380883e+01,1.000000e-02
2.180000e+00,-1.522973e+01,4.465502e+01,1.000000e-02
2.190000e+00,-1.433870e+01,6.486682e+01,1.000000e-02
2.200000e+00,-1.304532e+01,8.389333e+01,1.000000e-02
2.210000e+00,-1.137323e+01,1.012006e+02,1.000000e-02
2.220000e+00,-9.356723e+00,1.162861e+02,1.000000e-02
2.230000e+00,-7.040071e+00,1.286929e+02,1.000000e-02
2.240000e+00,-4.476653e+00,1.380229e+02,1.000000e-02
2.250000e+00,-1.727765e+00,1.439488e+02,1.000000e-02
2.260000e+00,1.138788e+00,1.462249e+02,1.000000e-02
2.270000e+00,4.050317e+00,1.446955e+02,1.000000e-02
2.280000e+00,6.931037e+00,1.393012e+02,1.000000e-02
2.290000e+00,9.703997e+00,1.300835e+02,1.000000e-02
2.300000e+00,1.229307e+01,1.171858e+02,1.000000e-02
2.310000e+00,1.462502e+01,1.008528e+02,1.000000e-02
2.320000e+00,1.663145e+01,8.142608e+01,1.000000e-02
2.330000e+00,1.825081e+01,5.933824e+01,1.000000e-02
2.340000e+00,1.943015e+01,3.510341e+01,1.000000e-02
2.350000e+00,2.012678e+01,9.305960e+00,1.000000e-02
2.360000e+00,2.030965e+01,-1.741313e+01,1.000000e-02
2.370000e+00,1.996045e+01,-4.437173e+01,1.000000e-02
2.380000e+00,1.907449e+01,-7.086351e+01,1.000000e-02
2.390000e+00,1.766112e+01,-9.617597e+01,1.000000e-02
2.400000e+00,1.574390e+01,-1.196092e+02,1.000000e-02
2.410000e+00,1.336031e+01,-1.404944e+02,1.000000e-02
2.420000e+00,1.056113e+01,-1.582130e+02,1.000000e-02
2.430000e+00,7.409473e+00,-1.722135e+02,1.000000e-02
2.440000e+00,3.979417e+00,-1.820286e+02,1.000000e-02
2.450000e+00,3.543377e-01,-1.872891e+02,1.000000e-02
2.460000e+00,-3.375052e+00,-1.877368e+02,1.000000e-02
2.470000e+00,-7.112903e+00,-1.832337e+02,1.000000e-02
2.480000e+00,-1.076063e+01,-1.737692e+02,1.000000e-02
2.490000e+00,-1.421946e+01,-1.594636e+02,1.000000e-02
2.500000e+00,-1.739302e+01,-1.405681e+02,1.000000e-02
2.510000e+00,-2.018994e+01,-1.174622e+02,1.000000e-02
2.520000e+00,-2.252642e+01,-9.064613e+01,1.000000e-02
2.530000e+00,-2.432866e+01,-6.073169e+01,1.000000e-02
2.540000e+00,-2.553501e+01,-2.842845e+01,1.000000e-02
2.550000e+00,-2.609799e+01,5.472296e+00,1.000000e-02
2.560000e+00,-2.598586e+01,4.011627e+01,1.000000e-02
2.570000e+00,-2.518391e+01,7.460720e+01,1.000000e-02
2.580000e+00,-2.369526e+01,1.080294e+02,1.000000e-02
2.590000e+00,-2.154128e+01,1.394713e+02,1.000000e-02
2.600000e+00,-1.876148e+01,1.680501e+02,1.000000e-02
2.610000e+00,-1.541295e+01,1.929352e+02,1.000000e-02
2.620000e+00,-1.156931e+01,2.133723e+02,1.000000e-02
2.630000e+00,-7.319182e+00,2.287045e+02,1.000000e-02
2.640000e+00,-2.764276e+00,2.383928e+02,1.000000e-02
2.650000e+00,1.982996e+00,2.420334e+02,1.000000e-02
2.660000e+00,6.802184e+00,2.393717e+02,1.000000e-02
2.670000e+00,1.156779e+01,2.303129e+02,1.000000e-02
2.680000e+00,1.615243e+01,2.149289e+02,1.000000e-02
2.690000e+00,2.043019e+01,1.934608e+02,1.000000e-02
2.700000e+00,2.427995e+01,1.663166e+02,1.000000e-02
2.710000e+00,2.758875e+01,1.340652e+02,1.000000e-02
2.720000e+00,3.025494e+01,9.742538e+01,1.000000e-02
2.730000e+00,3.219123e+01,5.725065e+01,1.000000e-02
2.740000e+00,3.332731e+01,1.451040e+01,1.000000e-02
2.750000e+00,3.361221e+01,-2.973280e+01,1.000000e-02
2.760000e+00,3.301609e+01,-7.434883e+01,1.000000e-02
2.770000e+00,3.153163e+01,-1.181681e+02,1.000000e-02
2.780000e+00,2.917481e+01,-1.600115e+02,1.000000e-02
2.790000e+00,2.598509e+01,-1.987212e+02,1.000000e-02
2.800000e+00,2.202495e+01,-2.331918e+02,1.000000e-02
2.810000e+00,1.737891e+01,-2.624013e+02,1.000000e-02
2.820000e+00,1.215181e+01,-2.854397e+02,1.000000e-02
2.830000e+00,6.466587e+00,-3.015364e+02,1.000000e-02
2.840000e+00,4.615369e-01,-3.100841e+02,1.000000e-02
2.850000e+00,-5.712990e+00,-3.106592e+02,1.000000e-02
2.860000e+00,-1.189822e+01,-3.030376e+02,1.000000e-02
2.870000e+00,-1.793094e+01,-2.872062e+02,1.000000e-02
2.880000e+00,-2.364768e+01,-2.633684e+02,1.000000e-02
2.890000e+00,-2.888907e+01,-2.319445e+02,1.000000e-02
2.900000e+00,-3.350410e+01,-1.935667e+02,1.000000e-02
2.910000e+00,-3.735439e+01,-1.490671e+02,1.000000e-02
2.920000e+00,-4.031812e+01,-9.946169e+01,1.000000e-02
2.930000e+00,-4.229374e+01,-4.592801e+01,1.000000e-02
2.940000e+00,-4.320314e+01,1.022177e+01,1.000000e-02
2.950000e+00,-4.299436e+01,6.757196e+01,1.000000e-02
2.960000e+00,-4.164364e+01,1.246381e+02,1.000000e-02
2.970000e+00,-3.915677e+01,1.799042e+02,1.000000e-02
2.980000e+00,-3.556972e+01,2.318623e+02,1.000000e-02
2.990000e+00,-3.094851e+01,2.790524e+02,1.000000e-02
3.000000e+00,-2.538820e+01,3.201022e+02,1.000000e-02
3.010000e+00,-1.901117e+01,3.537658e+02,1.000000e-02
3.020000e+00,-1.196459e+01,3.789599e+02,1.000000e-02
3.030000e+00,-4.417202e+00,3.947967e+02,1.000000e-02
3.040000e+00,3.444622e+00,4.006126e+02,1.000000e-02
3.050000e+00,1.142130e+01,3.959913e+02,1.000000e-02
3.060000e+00,1.930499e+01,3.807817e+02,1.000000e-02
3.070000e+00,2.688487e+01,3.551085e+02,1.000000e-02
3.080000e+00,3.395262e+01,3.193763e+02,1.000000e-02
3.090000e+00,4.030800e+01,2.742660e+02,1.000000e-02
3.100000e+00,4.576436e+01,2.207246e+02,1.000000e-02
3.110000e+00,5.015394e+01,1.599464e+02,1.000000e-02
3.120000e+00,5.333275e+01,9.334851e+01,1.000000e-02
3.130000e+00,5.518506e+01,2.253888e+01,1.000000e-02
3.140000e+00,5.562717e+01,-5.072108e+01,1.000000e-02
3.150000e+00,5.461045e+01,-1.245591e+02,1.000000e-02
3.160000e+00,5.212358e+01,-1.970384e+02,1.000000e-02
3.170000e+00,4.819378e+01,-2.662077e+02,1.000000e-02
3.180000e+00,4.288715e+01,-3.301518e+02,1.000000e-02
3.190000e+00,3.630789e+01,-3.870437e+02,1.000000e-02
3.200000e+00,2.859657e+01,-4.351949e+02,1.000000e-02
3.210000e+00,1.992740e+01,-4.731036e+02,1.000000e-02
3.220000e+00,1.050443e+01,-4.994995e+02,1.000000e-02
3.230000e+00,5.569967e-01,-5.133834e+02,1.000000e-02
3.240000e+00,-9.665687e+00,-5.140606e+02,1.000000e-02
3.250000e+00,-1.990061e+01,-5.011672e+02,1.000000e-02
3.260000e+00,-2.987757e+01,-4.746887e+02,1.000000e-02
3.270000e+00,-3.932606e+01,-4.349692e+02,1.000000e-02
3.280000e+00,-4.798251e+01,-3.827118e+02,1.000000e-02
3.290000e+00,-5.559734e+01,-3.189694e+02,1.000000e-02
3.300000e+00,-6.194199e+01,-2.451262e+02,1.000000e-02
3.310000e+00,-6.681550e+01,-1.628696e+02,1.000000e-02
3.320000e+00,-7.005049e+01,-7.415338e+01,1.000000e-02
3.330000e+00,-7.151856e+01,1.884645e+01,1.000000e-02
3.340000e+00,-7.113461e+01,1.137838e+02,1.000000e-02
3.350000e+00,-6.886030e+01,2.082000e+02,1.000000e-02
3.360000e+00,-6.470622e+01,2.995857e+02,1.000000e-02
3.370000e+00,-5.873295e+01,3.854457e+02,1.000000e-02
3.380000e+00,-5.105074e+01,4.633660e+02,1.000000e-02
3.390000e+00,-4.181789e+01,5.310788e+02,1.000000e-02
3.400000e+00,-3.123785e+01,5.865269e+02,1.000000e-02
3.410000e+00,-1.955500e+01,6.279235e+02,1.000000e-02
3.420000e+00,-7.049258e+00,6.538063e+02,1.000000e-02
3.430000e+00,5.970348e+00,6.630848e+02,1.000000e-02
3.440000e+00,1.917313e+01,6.550789e+02,1.000000e-02
3.450000e+00,3.221490e+01,6.295474e+02,1.000000e-02
3.460000e+00,4.474669e+01,5.867064e+02,1.000000e-02
3.470000e+00,5.642391e+01,5.272348e+02,1.000000e-02
3.480000e+00,6.691550e+01,4.522691e+02,1.000000e-02
3.490000e+00,7.591307e+01,3.633851e+02,1.000000e-02
3.500000e+00,8.313968e+01,2.625677e+02,1.000000e-02
3.510000e+00,8.835791e+01,1.521693e+02,1.000000e-02
3.520000e+00,9.137723e+01,3.485726e+01,1.000000e-02
3.530000e+00,9.206024e+01,-8.644869e+01,1.000000e-02
3.540000e+00,9.032769e+01,-2.086466e+02,1.000000e-02
3.550000e+00,8.616211e+01,-3.285298e+02,1.000000e-02
3.560000e+00,7.960990e+01,-4.428687e+02,1.000000e-02
3.570000e+00,7.078174e+01,-5.484958e+02,1.000000e-02
3.580000e+00,5.985138e+01,-6.423908e+02,1.000000e-02
3.590000e+00,4.705268e+01,-7.217646e+02,1.000000e-02
3.600000e+00,3.267502e+01,-7.841387e+02,1.000000e-02
3.610000e+00,1.705709e+01,-8.274192e+02,1.000000e-02
3.620000e+00,5.792525e-01,-8.499618e+02,1.000000e-02
3.630000e+00,-1.634547e+01,-8.506277e+02,1.000000e-02
3.640000e+00,-3.328139e+01,-8.288263e+02,1.000000e-02
3.650000e+00,-4.978115e+01,-7.845453e+02,1.000000e-02
3.660000e+00,-6.539717e+01,-7.183665e+02,1.000000e-02
3.670000e+00,-7.969353e+01,-6.314658e+02,1.000000e-02
3.680000e+00,-9.225777e+01,-5.255974e+02,1.000000e-02
3.690000e+00,-1.027124e+02,-4.030631e+02,1.000000e-02
3.700000e+00,-1.107258e+02,-2.666653e+02,1.000000e-02
3.710000e+00,-1.160223e+02,-1.196463e+02,1.000000e-02
3.720000e+00,-1.183907e+02,3.438591e+01,1.000000e-02
3.730000e+00,-1.176916e+02,1.915434e+02,1.000000e-02
3.740000e+00,-1.138633e+02,3.477538e+02,1.000000e-02
3.750000e+00,-1.069249e+02,4.988632e+02,1.000000e-02
3.760000e+00,-9.697848e+01,6.407437e+02,1.000000e-02
