time,u0,u1,tau
0.00000000e+00,1.00000000e+00,1.00000000e-01,1.00000000e-02
1.00000000e-02,1.00007820e+00,5.98167427e-02,1.00000000e-02
2.00000000e-02,9.98595253e-01,1.99798036e-02,1.00000000e-02
3.00000000e-02,9.95591861e-01,-1.94585872e-02,1.00000000e-02
4.00000000e-02,9.91109082e-01,-5.84486391e-02,1.00000000e-02
5.00000000e-02,9.85188151e-01,-9.69429102e-02,1.00000000e-02
6.00000000e-02,9.77870354e-01,-1.34896209e-01,1.00000000e-02
7.00000000e-02,9.69196926e-01,-1.72265487e-01,1.00000000e-02
8.00000000e-02,9.59208978e-01,-2.09009737e-01,1.00000000e-02
9.00000000e-02,9.47947442e-01,-2.45089890e-01,1.00000000e-02
1.00000000e-01,9.35453052e-01,-2.80468716e-01,1.00000000e-02
1.10000000e-01,9.21766332e-01,-3.15110743e-01,1.00000000e-02
1.20000000e-01,9.06927609e-01,-3.48982183e-01,1.00000000e-02
1.30000000e-01,8.90977035e-01,-3.82050868e-01,1.00000000e-02
1.40000000e-01,8.73954626e-01,-4.14286208e-01,1.00000000e-02
1.50000000e-01,8.55900298e-01,-4.45659160e-01,1.00000000e-02
1.60000000e-01,8.36853911e-01,-4.76142211e-01,1.00000000e-02
1.70000000e-01,8.16855319e-01,-5.05709374e-01,1.00000000e-02
1.80000000e-01,7.95944404e-01,-5.34336204e-01,1.00000000e-02
1.90000000e-01,7.74161120e-01,-5.61999814e-01,1.00000000e-02
2.00000000e-01,7.51545516e-01,-5.88678904e-01,1.00000000e-02
2.10000000e-01,7.28137756e-01,-6.14353802e-01,1.00000000e-02
2.20000000e-01,7.03978131e-01,-6.39006496e-01,1.00000000e-02
2.30000000e-01,6.79107050e-01,-6.62620678e-01,1.00000000e-02
2.40000000e-01,6.53565031e-01,-6.85181779e-01,1.00000000e-02
2.50000000e-01,6.27392664e-01,-7.06677003e-01,1.00000000e-02
2.60000000e-01,6.00630582e-01,-7.27095352e-01,1.00000000e-02
2.70000000e-01,5.73319403e-01,-7.46427641e-01,1.00000000e-02
2.80000000e-01,5.45499672e-01,-7.64666506e-01,1.00000000e-02
2.90000000e-01,5.17211795e-01,-7.81806395e-01,1.00000000e-02
3.00000000e-01,4.88495965e-01,-7.97843552e-01,1.00000000e-02
3.10000000e-01,4.59392084e-01,-8.12775978e-01,1.00000000e-02
3.20000000e-01,4.29939682e-01,-8.26603391e-01,1.00000000e-02
3.30000000e-01,4.00177842e-01,-8.39327162e-01,1.00000000e-02
3.40000000e-01,3.70145115e-01,-8.50950245e-01,1.00000000e-02
3.50000000e-01,3.39879457e-01,-8.61477097e-01,1.00000000e-02
3.60000000e-01,3.09418154e-01,-8.70913582e-01,1.00000000e-02
3.70000000e-01,2.78797764e-01,-8.79266874e-01,1.00000000e-02
3.80000000e-01,2.48054068e-01,-8.86545351e-01,1.00000000e-02
3.90000000e-01,2.17222025e-01,-8.92758487e-01,1.00000000e-02
4.00000000e-01,1.86335743e-01,-8.97916736e-01,1.00000000e-02
4.10000000e-01,1.55428455e-01,-9.02031427e-01,1.00000000e-02
4.20000000e-01,1.24532510e-01,-9.05114650e-01,1.00000000e-02
4.30000000e-01,9.36793725e-02,-9.07179150e-01,1.00000000e-02
4.40000000e-01,6.28996314e-02,-9.08238227e-01,1.00000000e-02
4.50000000e-01,3.22230195e-02,-9.08305642e-01,1.00000000e-02
4.60000000e-01,1.67844006e-03,-9.07395526e-01,1.00000000e-02
4.70000000e-01,-2.87059983e-02,-9.05522307e-01,1.00000000e-02
4.80000000e-01,-5.89029411e-02,-9.02700637e-01,1.00000000e-02
4.90000000e-01,-8.88857422e-02,-8.98945334e-01,1.00000000e-02
5.00000000e-01,-1.18628414e-01,-8.94271338e-01,1.00000000e-02
5.10000000e-01,-1.48105578e-01,-8.88693666e-01,1.00000000e-02
5.20000000e-01,-1.77292407e-01,-8.82227392e-01,1.00000000e-02
5.30000000e-01,-2.06164579e-01,-8.74887626e-01,1.00000000e-02
5.40000000e-01,-2.34698223e-01,-8.66689510e-01,1.00000000e-02
5.50000000e-01,-2.62869871e-01,-8.57648224e-01,1.00000000e-02
5.60000000e-01,-2.90656418e-01,-8.47778994e-01,1.00000000e-02
5.70000000e-01,-3.18035078e-01,-8.37097115e-01,1.00000000e-02
5.80000000e-01,-3.44983359e-01,-8.25617981e-01,1.00000000e-02
5.90000000e-01,-3.71479030e-01,-8.13357120e-01,1.00000000e-02
6.00000000e-01,-3.97500111e-01,-8.00330235e-01,1.00000000e-02
6.10000000e-01,-4.23024860e-01,-7.86553246e-01,1.00000000e-02
6.20000000e-01,-4.48031772e-01,-7.72042343e-01,1.00000000e-02
6.30000000e-01,-4.72499590e-01,-7.56814035e-01,1.00000000e-02
6.40000000e-01,-4.96407323e-01,-7.40885200e-01,1.00000000e-02
6.50000000e-01,-5.19734267e-01,-7.24273137e-01,1.00000000e-02
6.60000000e-01,-5.42460048e-01,-7.06995613e-01,1.00000000e-02
6.70000000e-01,-5.64564657e-01,-6.89070915e-01,1.00000000e-02
6.80000000e-01,-5.86028504e-01,-6.70517885e-01,1.00000000e-02
6.90000000e-01,-6.06832474e-01,-6.51355961e-01,1.00000000e-02
7.00000000e-01,-6.26957988e-01,-6.31605206e-01,1.00000000e-02
7.10000000e-01,-6.46387069e-01,-6.11286334e-01,1.00000000e-02
7.20000000e-01,-6.65102407e-01,-5.90420724e-01,1.00000000e-02
7.30000000e-01,-6.83087437e-01,-5.69030430e-01,1.00000000e-02
7.40000000e-01,-7.00326401e-01,-5.47138178e-01,1.00000000e-02
7.50000000e-01,-7.16804422e-01,-5.24767358e-01,1.00000000e-02
7.60000000e-01,-7.32507568e-01,-5.01942004e-01,1.00000000e-02
7.70000000e-01,-7.47422916e-01,-4.78686771e-01,1.00000000e-02
7.80000000e-01,-7.61538606e-01,-4.55026896e-01,1.00000000e-02
7.90000000e-01,-7.74843897e-01,-4.30988154e-01,1.00000000e-02
8.00000000e-01,-7.87329206e-01,-4.06596813e-01,1.00000000e-02
8.10000000e-01,-7.98986143e-01,-3.81879573e-01,1.00000000e-02
8.20000000e-01,-8.09807545e-01,-3.56863508e-01,1.00000000e-02
8.30000000e-01,-8.19787484e-01,-3.31575998e-01,1.00000000e-02
8.40000000e-01,-8.28921285e-01,-3.06044662e-01,1.00000000e-02
8.50000000e-01,-8.37205519e-01,-2.80297285e-01,1.00000000e-02
8.60000000e-01,-8.44637999e-01,-2.54361750e-01,1.00000000e-02
8.70000000e-01,-8.51217756e-01,-2.28265963e-01,1.00000000e-02
8.80000000e-01,-8.56945021e-01,-2.02037785e-01,1.00000000e-02
8.90000000e-01,-8.61821187e-01,-1.75704963e-01,1.00000000e-02
9.00000000e-01,-8.65848771e-01,-1.49295067e-01,1.00000000e-02
9.10000000e-01,-8.69031369e-01,-1.22835428e-01,1.00000000e-02
9.20000000e-01,-8.71373606e-01,-9.63530798e-02,1.00000000e-02
9.30000000e-01,-8.72881086e-01,-6.98747090e-02,1.00000000e-02
9.40000000e-01,-8.73560332e-01,-4.34266085e-02,1.00000000e-02
9.50000000e-01,-8.73418730e-01,-1.70346357e-02,1.00000000e-02
9.60000000e-01,-8.72464472e-01,9.27582314e-03,1.00000000e-02
9.70000000e-01,-8.70706497e-01,3.54798831e-02,1.00000000e-02
9.80000000e-01,-8.68154432e-01,6.15531855e-02,1.00000000e-02
9.90000000e-01,-8.64818542e-01,8.74719183e-02,1.00000000e-02
1.00000000e+00,-8.60709669e-01,1.13212831e-01,1.00000000e-02
1.01000000e+00,-8.55839187e-01,1.38753245e-01,1.00000000e-02
1.02000000e+00,-8.50218952e-01,1.64071064e-01,1.00000000e-02
1.03000000e+00,-8.43861257e-01,1.89144775e-01,1.00000000e-02
1.04000000e+00,-8.36778797e-01,2.13953448e-01,1.00000000e-02
1.05000000e+00,-8.28984625e-01,2.38476740e-01,1.00000000e-02
1.06000000e+00,-8.20492125e-01,2.62694890e-01,1.00000000e-02
1.07000000e+00,-8.11314982e-01,2.86588713e-01,1.00000000e-02
1.08000000e+00,-8.01467153e-01,3.10139596e-01,1.00000000e-02
1.09000000e+00,-7.90962852e-01,3.33329497e-01,1.00000000e-02
1.10000000e+00,-7.79816527e-01,3.56140935e-01,1.00000000e-02
1.11000000e+00,-7.68042846e-01,3.78556987e-01,1.00000000e-02
1.12000000e+00,-7.55656685e-01,4.00561285e-01,1.00000000e-02
1.13000000e+00,-7.42673115e-01,4.22138013e-01,1.00000000e-02
1.14000000e+00,-7.29107398e-01,4.43271904e-01,1.00000000e-02
1.15000000e+00,-7.14974976e-01,4.63948242e-01,1.00000000e-02
1.16000000e+00,-7.00291467e-01,4.84152859e-01,1.00000000e-02
1.17000000e+00,-6.85072660e-01,5.03872140e-01,1.00000000e-02
1.18000000e+00,-6.69334509e-01,5.23093023e-01,1.00000000e-02
1.19000000e+00,-6.53093131e-01,5.41803006e-01,1.00000000e-02
1.20000000e+00,-6.36364799e-01,5.59990149e-01,1.00000000e-02
1.21000000e+00,-6.19165936e-01,5.77643082e-01,1.00000000e-02
1.22000000e+00,-6.01513111e-01,5.94751006e-01,1.00000000e-02
1.23000000e+00,-5.83423031e-01,6.11303705e-01,1.00000000e-02
1.24000000e+00,-5.64912531e-01,6.27291546e-01,1.00000000e-02
1.25000000e+00,-5.45998569e-01,6.42705488e-01,1.00000000e-02
1.26000000e+00,-5.26698211e-01,6.57537084e-01,1.00000000e-02
1.27000000e+00,-5.07028618e-01,6.71778484e-01,1.00000000e-02
1.28000000e+00,-4.87007038e-01,6.85422435e-01,1.00000000e-02
1.29000000e+00,-4.66650789e-01,6.98462288e-01,1.00000000e-02
1.30000000e+00,-4.45977242e-01,7.10891988e-01,1.00000000e-02
1.31000000e+00,-4.25003808e-01,7.22706075e-01,1.00000000e-02
1.32000000e+00,-4.03747918e-01,7.33899676e-01,1.00000000e-02
1.33000000e+00,-3.82227010e-01,7.44468499e-01,1.00000000e-02
1.34000000e+00,-3.60458508e-01,7.54408823e-01,1.00000000e-02
1.35000000e+00,-3.38459809e-01,7.63717482e-01,1.00000000e-02
1.36000000e+00,-3.16248261e-01,7.72391855e-01,1.00000000e-02
1.37000000e+00,-2.93841153e-01,7.80429845e-01,1.00000000e-02
1.38000000e+00,-2.71255695e-01,7.87829864e-01,1.00000000e-02
1.39000000e+00,-2.48509009e-01,7.94590810e-01,1.00000000e-02
1.40000000e+00,-2.25618111e-01,8.00712047e-01,1.00000000e-02
1.41000000e+00,-2.02599908e-01,8.06193380e-01,1.00000000e-02
1.42000000e+00,-1.79471180e-01,8.11035033e-01,1.00000000e-02
1.43000000e+00,-1.56248580e-01,8.15237624e-01,1.00000000e-02
1.44000000e+00,-1.32948629e-01,8.18802136e-01,1.00000000e-02
1.45000000e+00,-1.09587707e-01,8.21729898e-01,1.00000000e-02
1.46000000e+00,-8.61820598e-02,8.24022555e-01,1.00000000e-02
1.47000000e+00,-6.27477971e-02,8.25682048e-01,1.00000000e-02
1.48000000e+00,-3.93008966e-02,8.26710586e-01,1.00000000e-02
1.49000000e+00,-1.58572102e-02,8.27110630e-01,1.00000000e-02
1.50000000e+00,7.56752816e-03,8.26884866e-01,1.00000000e-02
1.51000000e+00,3.09576928e-02,8.26036191e-01,1.00000000e-02
1.52000000e+00,5.42977555e-02,8.24567696e-01,1.00000000e-02
1.53000000e+00,7.75722726e-02,8.22482651e-01,1.00000000e-02
1.54000000e+00,1.00765871e-01,8.19784492e-01,1.00000000e-02
1.55000000e+00,1.23863236e-01,8.16476818e-01,1.00000000e-02
1.56000000e+00,1.46849091e-01,8.12563375e-01,1.00000000e-02
1.57000000e+00,1.69708190e-01,8.08048065e-01,1.00000000e-02
1.58000000e+00,1.92425294e-01,8.02934935e-01,1.00000000e-02
1.59000000e+00,2.14985163e-01,7.97228186e-01,1.00000000e-02
1.60000000e+00,2.37372540e-01,7.90932180e-01,1.00000000e-02
1.61000000e+00,2.59572136e-01,7.84051444e-01,1.00000000e-02
1.62000000e+00,2.81568624e-01,7.76590686e-01,1.00000000e-02
1.63000000e+00,3.03346624e-01,7.68554809e-01,1.00000000e-02
1.64000000e+00,3.24890700e-01,7.59948926e-01,1.00000000e-02
1.65000000e+00,3.46185356e-01,7.50778382e-01,1.00000000e-02
1.66000000e+00,3.67215032e-01,7.41048777e-01,1.00000000e-02
1.67000000e+00,3.87964105e-01,7.30765985e-01,1.00000000e-02
1.68000000e+00,4.08416899e-01,7.19936184e-01,1.00000000e-02
1.69000000e+00,4.28557689e-01,7.08565881e-01,1.00000000e-02
1.70000000e+00,4.48370713e-01,6.96661937e-01,1.00000000e-02
1.71000000e+00,4.67840193e-01,6.84231599e-01,1.00000000e-02
1.72000000e+00,4.86950348e-01,6.71282525e-01,1.00000000e-02
1.73000000e+00,5.05685426e-01,6.57822809e-01,1.00000000e-02
1.74000000e+00,5.24029724e-01,6.43861016e-01,1.00000000e-02
1.75000000e+00,5.41967625e-01,6.29406195e-01,1.00000000e-02
1.76000000e+00,5.59483630e-01,6.14467913e-01,1.00000000e-02
1.77000000e+00,5.76562397e-01,5.99056271e-01,1.00000000e-02
1.78000000e+00,5.93188782e-01,5.83181921e-01,1.00000000e-02
1.79000000e+00,6.09347882e-01,5.66856084e-01,1.00000000e-02
1.80000000e+00,6.25025079e-01,5.50090562e-01,1.00000000e-02
1.81000000e+00,6.40206092e-01,5.32897743e-01,1.00000000e-02
1.82000000e+00,6.54877019e-01,5.15290608e-01,1.00000000e-02
1.83000000e+00,6.69024387e-01,4.97282728e-01,1.00000000e-02
1.84000000e+00,6.82635204e-01,4.78888260e-01,1.00000000e-02
1.85000000e+00,6.95697000e-01,4.60121939e-01,1.00000000e-02
1.86000000e+00,7.08197876e-01,4.40999062e-01,1.00000000e-02
1.87000000e+00,7.20126551e-01,4.21535468e-01,1.00000000e-02
1.88000000e+00,7.31472396e-01,4.01747522e-01,1.00000000e-02
1.89000000e+00,7.42225479e-01,3.81652077e-01,1.00000000e-02
1.90000000e+00,7.52376594e-01,3.61266452e-01,1.00000000e-02
1.91000000e+00,7.61917295e-01,3.40608396e-01,1.00000000e-02
1.92000000e+00,7.70839921e-01,3.19696043e-01,1.00000000e-02
1.93000000e+00,7.79137617e-01,2.98547880e-01,1.00000000e-02
1.94000000e+00,7.86804350e-01,2.77182701e-01,1.00000000e-02
1.95000000e+00,7.93834922e-01,2.55619561e-01,1.00000000e-02
1.96000000e+00,8.00224974e-01,2.33877728e-01,1.00000000e-02
1.97000000e+00,8.05970991e-01,2.11976644e-01,1.00000000e-02
1.98000000e+00,8.11070292e-01,1.89935868e-01,1.00000000e-02
1.99000000e+00,8.15521031e-01,1.67775038e-01,1.00000000e-02
2.00000000e+00,8.19322176e-01,1.45513817e-01,1.00000000e-02
2.01000000e+00,8.22473495e-01,1.23171856e-01,1.00000000e-02
2.02000000e+00,8.24975538e-01,1.00768744e-01,1.00000000e-02
2.03000000e+00,8.26829610e-01,7.83239714e-02,1.00000000e-02
2.04000000e+00,8.28037745e-01,5.58568890e-02,1.00000000e-02
2.05000000e+00,8.28602676e-01,3.33866718e-02,1.00000000e-02
2.06000000e+00,8.28527807e-01,1.09322856e-02,1.00000000e-02
2.07000000e+00,8.27817174e-01,-1.14875434e-02,1.00000000e-02
2.08000000e+00,8.26475418e-01,-3.38543570e-02,1.00000000e-02
2.09000000e+00,8.24507745e-01,-5.61499889e-02,1.00000000e-02
2.10000000e+00,8.21919893e-01,-7.83565871e-02,1.00000000e-02
2.11000000e+00,8.18718100e-01,-1.00456632e-01,1.00000000e-02
2.12000000e+00,8.14909063e-01,-1.22432952e-01,1.00000000e-02
2.13000000e+00,8.10499912e-01,-1.44268737e-01,1.00000000e-02
2.14000000e+00,8.05498173e-01,-1.65947551e-01,1.00000000e-02
2.15000000e+00,7.99911740e-01,-1.87453333e-01,1.00000000e-02
2.16000000e+00,7.93748841e-01,-2.08770414e-01,1.00000000e-02
2.17000000e+00,7.87018017e-01,-2.29883510e-01,1.00000000e-02
2.18000000e+00,7.79728087e-01,-2.50777731e-01,1.00000000e-02
2.19000000e+00,7.71888134e-01,-2.71438581e-01,1.00000000e-02
2.20000000e+00,7.63507474e-01,-2.91851954e-01,1.00000000e-02
2.21000000e+00,7.54595642e-01,-3.12004137e-01,1.00000000e-02
2.22000000e+00,7.45162369e-01,-3.31881806e-01,1.00000000e-02
2.23000000e+00,7.35217567e-01,-3.51472019e-01,1.00000000e-02
2.24000000e+00,7.24771314e-01,-3.70762221e-01,1.00000000e-02
2.25000000e+00,7.13833844e-01,-3.89740232e-01,1.00000000e-02
2.26000000e+00,7.02415529e-01,-4.08394250e-01,1.00000000e-02
2.27000000e+00,6.90526871e-01,-4.26712842e-01,1.00000000e-02
2.28000000e+00,6.78178498e-01,-4.44684944e-01,1.00000000e-02
2.29000000e+00,6.65381147e-01,-4.62299855e-01,1.00000000e-02
2.30000000e+00,6.52145666e-01,-4.79547238e-01,1.00000000e-02
2.31000000e+00,6.38483001e-01,-4.96417112e-01,1.00000000e-02
2.32000000e+00,6.24404194e-01,-5.12899851e-01,1.00000000e-02
2.33000000e+00,6.09920376e-01,-5.28986185e-01,1.00000000e-02
2.34000000e+00,5.95042765e-01,-5.44667195e-01,1.00000000e-02
2.35000000e+00,5.79782661e-01,-5.59934310e-01,1.00000000e-02
2.36000000e+00,5.64151439e-01,-5.74779309e-01,1.00000000e-02
2.37000000e+00,5.48160548e-01,-5.89194315e-01,1.00000000e-02
2.38000000e+00,5.31821506e-01,-6.03171799e-01,1.00000000e-02
2.39000000e+00,5.15145897e-01,-6.16704572e-01,1.00000000e-02
2.40000000e+00,4.98145364e-01,-6.29785788e-01,1.00000000e-02
2.41000000e+00,4.80831607e-01,-6.42408940e-01,1.00000000e-02
2.42000000e+00,4.63216379e-01,-6.54567858e-01,1.00000000e-02
2.43000000e+00,4.45311478e-01,-6.66256704e-01,1.00000000e-02
2.44000000e+00,4.27128746e-01,-6.77469972e-01,1.00000000e-02
2.45000000e+00,4.08680063e-01,-6.88202483e-01,1.00000000e-02
2.46000000e+00,3.89977339e-01,-6.98449378e-01,1.00000000e-02
2.47000000e+00,3.71032514e-01,-7.08206116e-01,1.00000000e-02
2.48000000e+00,3.51857550e-01,-7.17468463e-01,1.00000000e-02
2.49000000e+00,3.32464427e-01,-7.26232494e-01,1.00000000e-02
2.50000000e+00,3.12865140e-01,-7.34494575e-01,1.00000000e-02
2.51000000e+00,2.93071694e-01,-7.42251363e-01,1.00000000e-02
2.52000000e+00,2.73096098e-01,-7.49499792e-01,1.00000000e-02
2.53000000e+00,2.52950367e-01,-7.56237068e-01,1.00000000e-02
2.54000000e+00,2.32646516e-01,-7.62460655e-01,1.00000000e-02
2.55000000e+00,2.12196559e-01,-7.68168265e-01,1.00000000e-02
2.56000000e+00,1.91612510e-01,-7.73357852e-01,1.00000000e-02
2.57000000e+00,1.70906380e-01,-7.78027593e-01,1.00000000e-02
2.58000000e+00,1.50090181e-01,-7.82175883e-01,1.00000000e-02
2.59000000e+00,1.29175926e-01,-7.85801324e-01,1.00000000e-02
2.60000000e+00,1.08175632e-01,-7.88902707e-01,1.00000000e-02
2.61000000e+00,8.71013265e-02,-7.91479011e-01,1.00000000e-02
2.62000000e+00,6.59650486e-02,-7.93529386e-01,1.00000000e-02
2.63000000e+00,4.47788587e-02,-7.95053144e-01,1.00000000e-02
2.64000000e+00,2.35548438e-02,-7.96049754e-01,1.00000000e-02
2.65000000e+00,2.30512605e-03,-7.96518831e-01,1.00000000e-02
2.66000000e+00,-1.89581285e-02,-7.96460130e-01,1.00000000e-02
2.67000000e+00,-4.02227001e-02,-7.95873539e-01,1.00000000e-02
2.68000000e+00,-6.14763048e-02,-7.94759078e-01,1.00000000e-02
2.69000000e+00,-8.27065836e-02,-7.93116895e-01,1.00000000e-02
2.70000000e+00,-1.03901091e-01,-7.90947262e-01,1.00000000e-02
2.71000000e+00,-1.25047284e-01,-7.88250582e-01,1.00000000e-02
2.72000000e+00,-1.46132510e-01,-7.85027385e-01,1.00000000e-02
2.73000000e+00,-1.67143994e-01,-7.81278338e-01,1.00000000e-02
2.74000000e+00,-1.88068829e-01,-7.77004247e-01,1.00000000e-02
2.75000000e+00,-2.08893967e-01,-7.72206070e-01,1.00000000e-02
2.76000000e+00,-2.29606206e-01,-7.66884922e-01,1.00000000e-02
2.77000000e+00,-2.50192182e-01,-7.61042094e-01,1.00000000e-02
2.78000000e+00,-2.70638363e-01,-7.54679064e-01,1.00000000e-02
2.79000000e+00,-2.90931042e-01,-7.47797513e-01,1.00000000e-02
2.80000000e+00,-3.11056334e-01,-7.40399345e-01,1.00000000e-02
2.81000000e+00,-3.31000174e-01,-7.32486709e-01,1.00000000e-02
2.82000000e+00,-3.50748315e-01,-7.24062016e-01,1.00000000e-02
2.83000000e+00,-3.70286333e-01,-7.15127966e-01,1.00000000e-02
2.84000000e+00,-3.89599634e-01,-7.05687575e-01,1.00000000e-02
2.85000000e+00,-4.08673458e-01,-6.95744194e-01,1.00000000e-02
2.86000000e+00,-4.27492896e-01,-6.85301540e-01,1.00000000e-02
2.87000000e+00,-4.46042901e-01,-6.74363725e-01,1.00000000e-02
2.88000000e+00,-4.64308310e-01,-6.62935277e-01,1.00000000e-02
2.89000000e+00,-4.82273860e-01,-6.51021173e-01,1.00000000e-02
2.90000000e+00,-4.99924220e-01,-6.38626862e-01,1.00000000e-02
2.91000000e+00,-5.17244015e-01,-6.25758292e-01,1.00000000e-02
2.92000000e+00,-5.34217858e-01,-6.12421935e-01,1.00000000e-02
2.93000000e+00,-5.50830390e-01,-5.98624809e-01,1.00000000e-02
2.94000000e+00,-5.67066310e-01,-5.84374501e-01,1.00000000e-02
2.95000000e+00,-5.82910423e-01,-5.69679182e-01,1.00000000e-02
2.96000000e+00,-5.98347681e-01,-5.54547626e-01,1.00000000e-02
2.97000000e+00,-6.13363224e-01,-5.38989221e-01,1.00000000e-02
2.98000000e+00,-6.27942435e-01,-5.23013981e-01,1.00000000e-02
2.99000000e+00,-6.42070982e-01,-5.06632546e-01,1.00000000e-02
3.00000000e+00,-6.55734870e-01,-4.89856190e-01,1.00000000e-02
3.01000000e+00,-6.68920488e-01,-4.72696817e-01,1.00000000e-02
3.02000000e+00,-6.81614660e-01,-4.55166951e-01,1.00000000e-02
3.03000000e+00,-6.93804691e-01,-4.37279731e-01,1.00000000e-02
3.04000000e+00,-7.05478415e-01,-4.19048891e-01,1.00000000e-02
3.05000000e+00,-7.16624238e-01,-4.00488741e-01,1.00000000e-02
3.06000000e+00,-7.27231184e-01,-3.81614147e-01,1.00000000e-02
3.07000000e+00,-7.37288926e-01,-3.62440501e-01,1.00000000e-02
3.08000000e+00,-7.46787831e-01,-3.42983688e-01,1.00000000e-02
3.09000000e+00,-7.55718986e-01,-3.23260056e-01,1.00000000e-02
3.10000000e+00,-7.64074224e-01,-3.03286372e-01,1.00000000e-02
3.11000000e+00,-7.71846155e-01,-2.83079787e-01,1.00000000e-02
3.12000000e+00,-7.79028174e-01,-2.62657793e-01,1.00000000e-02
3.13000000e+00,-7.85614484e-01,-2.42038171e-01,1.00000000e-02
3.14000000e+00,-7.91600099e-01,-2.21238957e-01,1.00000000e-02
3.15000000e+00,-7.96980848e-01,-2.00278384e-01,1.00000000e-02
3.16000000e+00,-8.01753378e-01,-1.79174843e-01,1.00000000e-02
3.17000000e+00,-8.05915146e-01,-1.57946831e-01,1.00000000e-02
3.18000000e+00,-8.09464407e-01,-1.36612908e-01,1.00000000e-02
3.19000000e+00,-8.12400204e-01,-1.15191648e-01,1.00000000e-02
3.20000000e+00,-8.14722347e-01,-9.37015989e-02,1.00000000e-02
3.21000000e+00,-8.16431394e-01,-7.21612387e-02,1.00000000e-02
3.22000000e+00,-8.17528625e-01,-5.05889349e-02,1.00000000e-02
3.23000000e+00,-8.18016015e-01,-2.90029075e-02,1.00000000e-02
3.24000000e+00,-8.17896206e-01,-7.42119376e-03,1.00000000e-02
3.25000000e+00,-8.17172473e-01,1.41383838e-02,1.00000000e-02
