time,u0,u1,tau
0.00000000e+00,1.00000000e+00,1.00000000e-01,1.00000000e-02
1.00000000e-02,1.00007880e+00,5.95918776e-02,1.00000000e-02
2.00000000e-02,9.98569920e-01,1.96020024e-02,1.00000000e-02
3.00000000e-02,9.95513718e-01,-1.99194388e-02,1.00000000e-02
4.00000000e-02,9.90951421e-01,-5.89244629e-02,1.00000000e-02
5.00000000e-02,9.84925059e-01,-9.73672988e-02,1.00000000e-02
6.00000000e-02,9.77477402e-01,-1.35204392e-01,1.00000000e-02
7.00000000e-02,9.68651880e-01,-1.72394406e-01,1.00000000e-02
8.00000000e-02,9.58492509e-01,-2.08898223e-01,1.00000000e-02
9.00000000e-02,9.47043811e-01,-2.44678931e-01,1.00000000e-02
1.00000000e-01,9.34350727e-01,-2.79701821e-01,1.00000000e-02
1.10000000e-01,9.20458539e-01,-3.13934363e-01,1.00000000e-02
1.20000000e-01,9.05412779e-01,-3.47346190e-01,1.00000000e-02
1.30000000e-01,8.89259147e-01,-3.79909067e-01,1.00000000e-02
1.40000000e-01,8.72043428e-01,-4.11596863e-01,1.00000000e-02
1.50000000e-01,8.53811408e-01,-4.42385511e-01,1.00000000e-02
1.60000000e-01,8.34608794e-01,-4.72252971e-01,1.00000000e-02
1.70000000e-01,8.14481138e-01,-5.01179177e-01,1.00000000e-02
1.80000000e-01,7.93473761e-01,-5.29145994e-01,1.00000000e-02
1.90000000e-01,7.71631684e-01,-5.56137159e-01,1.00000000e-02
2.00000000e-01,7.48999561e-01,-5.82138226e-01,1.00000000e-02
2.10000000e-01,7.25621617e-01,-6.07136505e-01,1.00000000e-02
2.20000000e-01,7.01541591e-01,-6.31120997e-01,1.00000000e-02
2.30000000e-01,6.76802684e-01,-6.54082331e-01,1.00000000e-02
2.40000000e-01,6.51447510e-01,-6.76012699e-01,1.00000000e-02
2.50000000e-01,6.25518057e-01,-6.96905782e-01,1.00000000e-02
2.60000000e-01,5.99055646e-01,-7.16756690e-01,1.00000000e-02
2.70000000e-01,5.72100901e-01,-7.35561885e-01,1.00000000e-02
2.80000000e-01,5.44693721e-01,-7.53319119e-01,1.00000000e-02
2.90000000e-01,5.16873257e-01,-7.70027361e-01,1.00000000e-02
3.00000000e-01,4.88677897e-01,-7.85686734e-01,1.00000000e-02
3.10000000e-01,4.60145250e-01,-8.00298449e-01,1.00000000e-02
3.20000000e-01,4.31312138e-01,-8.13864738e-01,1.00000000e-02
3.30000000e-01,4.02214594e-01,-8.26388797e-01,1.00000000e-02
3.40000000e-01,3.72887855e-01,-8.37874723e-01,1.00000000e-02
3.50000000e-01,3.43366371e-01,-8.48327459e-01,1.00000000e-02
3.60000000e-01,3.13683806e-01,-8.57752740e-01,1.00000000e-02
3.70000000e-01,2.83873048e-01,-8.66157040e-01,1.00000000e-02
3.80000000e-01,2.53966221e-01,-8.73547525e-01,1.00000000e-02
3.90000000e-01,2.23994699e-01,-8.79932009e-01,1.00000000e-02
4.00000000e-01,1.93989117e-01,-8.85318910e-01,1.00000000e-02
4.10000000e-01,1.63979392e-01,-8.89717214e-01,1.00000000e-02
4.20000000e-01,1.33994740e-01,-8.93136437e-01,1.00000000e-02
4.30000000e-01,1.04063693e-01,-8.95586595e-01,1.00000000e-02
4.40000000e-01,7.42141231e-02,-8.97078176e-01,1.00000000e-02
4.50000000e-01,4.44732574e-02,-8.97622112e-01,1.00000000e-02
4.60000000e-01,1.48677012e-02,-8.97229758e-01,1.00000000e-02
4.70000000e-01,-1.45765428e-02,-8.95912874e-01,1.00000000e-02
4.80000000e-01,-4.38340550e-02,-8.93683606e-01,1.00000000e-02
4.90000000e-01,-7.28799802e-02,-8.90554474e-01,1.00000000e-02
5.00000000e-01,-1.01690009e-01,-8.86538361e-01,1.00000000e-02
5.10000000e-01,-1.30240363e-01,-8.81648503e-01,1.00000000e-02
5.20000000e-01,-1.58507776e-01,-8.75898483e-01,1.00000000e-02
5.30000000e-01,-1.86469482e-01,-8.69302227e-01,1.00000000e-02
5.40000000e-01,-2.14103202e-01,-8.61874002e-01,1.00000000e-02
5.50000000e-01,-2.41387134e-01,-8.53628413e-01,1.00000000e-02
5.60000000e-01,-2.68299942e-01,-8.44580405e-01,1.00000000e-02
5.70000000e-01,-2.94820751e-01,-8.34745266e-01,1.00000000e-02
5.80000000e-01,-3.20929139e-01,-8.24138627e-01,1.00000000e-02
5.90000000e-01,-3.46605137e-01,-8.12776464e-01,1.00000000e-02
6.00000000e-01,-3.71829225e-01,-8.00675108e-01,1.00000000e-02
6.10000000e-01,-3.96582335e-01,-7.87851243e-01,1.00000000e-02
6.20000000e-01,-4.20845851e-01,-7.74321912e-01,1.00000000e-02
6.30000000e-01,-4.44601615e-01,-7.60104525e-01,1.00000000e-02
6.40000000e-01,-4.67831937e-01,-7.45216854e-01,1.00000000e-02
6.50000000e-01,-4.90519596e-01,-7.29677045e-01,1.00000000e-02
6.60000000e-01,-5.12647858e-01,-7.13503616e-01,1.00000000e-02
6.70000000e-01,-5.34200484e-01,-6.96715456e-01,1.00000000e-02
6.80000000e-01,-5.55161741e-01,-6.79331832e-01,1.00000000e-02
6.90000000e-01,-5.75516422e-01,-6.61372379e-01,1.00000000e-02
7.00000000e-01,-5.95249859e-01,-6.42857107e-01,1.00000000e-02
7.10000000e-01,-6.14347941e-01,-6.23806389e-01,1.00000000e-02
7.20000000e-01,-6.32797130e-01,-6.04240958e-01,1.00000000e-02
7.30000000e-01,-6.50584482e-01,-5.84181900e-01,1.00000000e-02
7.40000000e-01,-6.67697664e-01,-5.63650644e-01,1.00000000e-02
7.50000000e-01,-6.84124976e-01,-5.42668949e-01,1.00000000e-02
7.60000000e-01,-6.99855366e-01,-5.21258894e-01,1.00000000e-02
7.70000000e-01,-7.14878457e-01,-4.99442859e-01,1.00000000e-02
7.80000000e-01,-7.29184556e-01,-4.77243507e-01,1.00000000e-02
7.90000000e-01,-7.42764681e-01,-4.54683768e-01,1.00000000e-02
8.00000000e-01,-7.55610575e-01,-4.31786816e-01,1.00000000e-02
8.10000000e-01,-7.67714722e-01,-4.08576045e-01,1.00000000e-02
8.20000000e-01,-7.79070368e-01,-3.85075044e-01,1.00000000e-02
8.30000000e-01,-7.89671526e-01,-3.61307570e-01,1.00000000e-02
8.40000000e-01,-7.99512999e-01,-3.37297522e-01,1.00000000e-02
8.50000000e-01,-8.08590384e-01,-3.13068907e-01,1.00000000e-02
8.60000000e-01,-8.16900085e-01,-2.88645811e-01,1.00000000e-02
8.70000000e-01,-8.24439321e-01,-2.64052369e-01,1.00000000e-02
8.80000000e-01,-8.31206129e-01,-2.39312725e-01,1.00000000e-02
8.90000000e-01,-8.37199368e-01,-2.14451007e-01,1.00000000e-02
9.00000000e-01,-8.42418723e-01,-1.89491283e-01,1.00000000e-02
9.10000000e-01,-8.46864700e-01,-1.64457532e-01,1.00000000e-02
9.20000000e-01,-8.50538624e-01,-1.39373607e-01,1.00000000e-02
9.30000000e-01,-8.53442636e-01,-1.14263197e-01,1.00000000e-02
9.40000000e-01,-8.55579679e-01,-8.91497975e-02,1.00000000e-02
9.50000000e-01,-8.56953493e-01,-6.40566691e-02,1.00000000e-02
9.60000000e-01,-8.57568601e-01,-3.90068077e-02,1.00000000e-02
9.70000000e-01,-8.57430291e-01,-1.40229096e-02,1.00000000e-02
9.80000000e-01,-8.56544602e-01,1.08726612e-02,1.00000000e-02
9.90000000e-01,-8.54918307e-01,3.56579037e-02,1.00000000e-02
1.00000000e+00,-8.52558884e-01,6.03112103e-02,1.00000000e-02
1.01000000e+00,-8.49474500e-01,8.48113952e-02,1.00000000e-02
1.02000000e+00,-8.45673986e-01,1.09137721e-01,1.00000000e-02
1.03000000e+00,-8.41166807e-01,1.33269926e-01,1.00000000e-02
1.04000000e+00,-8.35963037e-01,1.57188242e-01,1.00000000e-02
1.05000000e+00,-8.30073329e-01,1.80873423e-01,1.00000000e-02
1.06000000e+00,-8.23508886e-01,2.04306759e-01,1.00000000e-02
1.07000000e+00,-8.16281430e-01,2.27470096e-01,1.00000000e-02
1.08000000e+00,-8.08403170e-01,2.50345849e-01,1.00000000e-02
1.09000000e+00,-7.99886770e-01,2.72917016e-01,1.00000000e-02
1.10000000e+00,-7.90745317e-01,2.95167191e-01,1.00000000e-02
1.11000000e+00,-7.80992288e-01,3.17080567e-01,1.00000000e-02
1.12000000e+00,-7.70641517e-01,3.38641949e-01,1.00000000e-02
1.13000000e+00,-7.59707164e-01,3.59836751e-01,1.00000000e-02
1.14000000e+00,-7.48203681e-01,3.80651006e-01,1.00000000e-02
1.15000000e+00,-7.36145782e-01,4.01071358e-01,1.00000000e-02
1.16000000e+00,-7.23548411e-01,4.21085067e-01,1.00000000e-02
1.17000000e+00,-7.10426712e-01,4.40680002e-01,1.00000000e-02
1.18000000e+00,-6.96795998e-01,4.59844635e-01,1.00000000e-02
1.19000000e+00,-6.82671729e-01,4.78568035e-01,1.00000000e-02
1.20000000e+00,-6.68069476e-01,4.96839858e-01,1.00000000e-02
1.21000000e+00,-6.53004901e-01,5.14650340e-01,1.00000000e-02
1.22000000e+00,-6.37493730e-01,5.31990281e-01,1.00000000e-02
1.23000000e+00,-6.21551732e-01,5.48851034e-01,1.00000000e-02
1.24000000e+00,-6.05194695e-01,5.65224493e-01,1.00000000e-02
1.25000000e+00,-5.88438405e-01,5.81103077e-01,1.00000000e-02
1.26000000e+00,-5.71298632e-01,5.96479711e-01,1.00000000e-02
1.27000000e+00,-5.53791105e-01,6.11347817e-01,1.00000000e-02
1.28000000e+00,-5.35931506e-01,6.25701290e-01,1.00000000e-02
1.29000000e+00,-5.17735447e-01,6.39534485e-01,1.00000000e-02
1.30000000e+00,-4.99218463e-01,6.52842198e-01,1.00000000e-02
1.31000000e+00,-4.80396001e-01,6.65619649e-01,1.00000000e-02
1.32000000e+00,-4.61283407e-01,6.77862465e-01,1.00000000e-02
1.33000000e+00,-4.41895921e-01,6.89566659e-01,1.00000000e-02
1.34000000e+00,-4.22248673e-01,7.00728616e-01,1.00000000e-02
1.35000000e+00,-4.02356673e-01,7.11345077e-01,1.00000000e-02
1.36000000e+00,-3.82234810e-01,7.21413117e-01,1.00000000e-02
1.37000000e+00,-3.61897850e-01,7.30930135e-01,1.00000000e-02
1.38000000e+00,-3.41360435e-01,7.39893832e-01,1.00000000e-02
1.39000000e+00,-3.20637085e-01,7.48302203e-01,1.00000000e-02
1.40000000e+00,-2.99742193e-01,7.56153518e-01,1.00000000e-02
1.41000000e+00,-2.78690036e-01,7.63446309e-01,1.00000000e-02
1.42000000e+00,-2.57494772e-01,7.70179360e-01,1.00000000e-02
1.43000000e+00,-2.36170445e-01,7.76351694e-01,1.00000000e-02
1.44000000e+00,-2.14730995e-01,7.81962560e-01,1.00000000e-02
1.45000000e+00,-1.93190255e-01,7.87011431e-01,1.00000000e-02
1.46000000e+00,-1.71561965e-01,7.91497985e-01,1.00000000e-02
1.47000000e+00,-1.49859774e-01,7.95422108e-01,1.00000000e-02
1.48000000e+00,-1.28097249e-01,7.98783880e-01,1.00000000e-02
1.49000000e+00,-1.06287881e-01,8.01583573e-01,1.00000000e-02
1.50000000e+00,-8.44450931e-02,8.03821650e-01,1.00000000e-02
1.51000000e+00,-6.25822483e-02,8.05498757e-01,1.00000000e-02
1.52000000e+00,-4.07126569e-02,8.06615723e-01,1.00000000e-02
1.53000000e+00,-1.88495839e-02,8.07173563e-01,1.00000000e-02
1.54000000e+00,2.99374394e-03,8.07173472e-01,1.00000000e-02
1.55000000e+00,2.48041309e-02,8.06616833e-01,1.00000000e-02
1.56000000e+00,4.65684056e-02,8.05505218e-01,1.00000000e-02
1.57000000e+00,6.82734151e-02,8.03840388e-01,1.00000000e-02
1.58000000e+00,8.99060190e-02,8.01624303e-01,1.00000000e-02
1.59000000e+00,1.11453085e-01,7.98859124e-01,1.00000000e-02
1.60000000e+00,1.32901483e-01,7.95547222e-01,1.00000000e-02
1.61000000e+00,1.54238084e-01,7.91691183e-01,1.00000000e-02
1.62000000e+00,1.75449757e-01,7.87293819e-01,1.00000000e-02
1.63000000e+00,1.96523364e-01,7.82358172e-01,1.00000000e-02
1.64000000e+00,2.17445763e-01,7.76887529e-01,1.00000000e-02
1.65000000e+00,2.38203808e-01,7.70885429e-01,1.00000000e-02
1.66000000e+00,2.58784347e-01,7.64355671e-01,1.00000000e-02
1.67000000e+00,2.79174229e-01,7.57302330e-01,1.00000000e-02
1.68000000e+00,2.99360304e-01,7.49729764e-01,1.00000000e-02
1.69000000e+00,3.19329429e-01,7.41642624e-01,1.00000000e-02
1.70000000e+00,3.39068474e-01,7.33045869e-01,1.00000000e-02
1.71000000e+00,3.58564331e-01,7.23944775e-01,1.00000000e-02
1.72000000e+00,3.77803918e-01,7.14344943e-01,1.00000000e-02
1.73000000e+00,3.96774194e-01,7.04252316e-01,1.00000000e-02
1.74000000e+00,4.15462164e-01,6.93673182e-01,1.00000000e-02
1.75000000e+00,4.33854897e-01,6.82614188e-01,1.00000000e-02
1.76000000e+00,4.51939536e-01,6.71082349e-01,1.00000000e-02
1.77000000e+00,4.69703311e-01,6.59085052e-01,1.00000000e-02
1.78000000e+00,4.87133558e-01,6.46630072e-01,1.00000000e-02
1.79000000e+00,5.04217733e-01,6.33725568e-01,1.00000000e-02
1.80000000e+00,5.20943429e-01,6.20380097e-01,1.00000000e-02
1.81000000e+00,5.37298397e-01,6.06602615e-01,1.00000000e-02
1.82000000e+00,5.53270562e-01,5.92402481e-01,1.00000000e-02
1.83000000e+00,5.68848044e-01,5.77789459e-01,1.00000000e-02
1.84000000e+00,5.84019178e-01,5.62773717e-01,1.00000000e-02
1.85000000e+00,5.98772537e-01,5.47365831e-01,1.00000000e-02
1.86000000e+00,6.13096948e-01,5.31576776e-01,1.00000000e-02
1.87000000e+00,6.26981522e-01,5.15417929e-01,1.00000000e-02
1.88000000e+00,6.40415666e-01,4.98901061e-01,1.00000000e-02
1.89000000e+00,6.53389112e-01,4.82038329e-01,1.00000000e-02
1.90000000e+00,6.65891935e-01,4.64842269e-01,1.00000000e-02
1.91000000e+00,6.77914575e-01,4.47325786e-01,1.00000000e-02
1.92000000e+00,6.89447860e-01,4.29502144e-01,1.00000000e-02
1.93000000e+00,7.00483023e-01,4.11384950e-01,1.00000000e-02
1.94000000e+00,7.11011726e-01,3.92988140e-01,1.00000000e-02
1.95000000e+00,7.21026074e-01,3.74325966e-01,1.00000000e-02
1.96000000e+00,7.30518638e-01,3.55412973e-01,1.00000000e-02
1.97000000e+00,7.39482471e-01,3.36263987e-01,1.00000000e-02
1.98000000e+00,7.47911121e-01,3.16894087e-01,1.00000000e-02
1.99000000e+00,7.55798650e-01,2.97318590e-01,1.00000000e-02
2.00000000e+00,7.63139645e-01,2.77553026e-01,1.00000000e-02
2.01000000e+00,7.69929233e-01,2.57613112e-01,1.00000000e-02
2.02000000e+00,7.76163087e-01,2.37514733e-01,1.00000000e-02
2.03000000e+00,7.81837439e-01,2.17273912e-01,1.00000000e-02
2.04000000e+00,7.86949085e-01,1.96906785e-01,1.00000000e-02
2.05000000e+00,7.91495394e-01,1.76429576e-01,1.00000000e-02
2.06000000e+00,7.95474306e-01,1.55858571e-01,1.00000000e-02
2.07000000e+00,7.98884341e-01,1.35210087e-01,1.00000000e-02
2.08000000e+00,8.01724595e-01,1.14500449e-01,1.00000000e-02
2.09000000e+00,8.03994740e-01,9.37459595e-02,1.00000000e-02
2.10000000e+00,8.05695021e-01,7.29628743e-02,1.00000000e-02
2.11000000e+00,8.06826251e-01,5.21673744e-02,1.00000000e-02
2.12000000e+00,8.07389804e-01,3.13755399e-02,1.00000000e-02
2.13000000e+00,8.07387607e-01,1.06033244e-02,1.00000000e-02
2.14000000e+00,8.06822133e-01,-1.01334698e-02,1.00000000e-02
2.15000000e+00,8.05696383e-01,-3.08192157e-02,1.00000000e-02
2.16000000e+00,8.04013880e-01,-5.14384853e-02,1.00000000e-02
2.17000000e+00,8.01778651e-01,-7.19760713e-02,1.00000000e-02
2.18000000e+00,7.98995212e-01,-9.24170083e-02,1.00000000e-02
2.19000000e+00,7.95668554e-01,-1.12746593e-01,1.00000000e-02
2.20000000e+00,7.91804119e-01,-1.32950401e-01,1.00000000e-02
2.21000000e+00,7.87407791e-01,-1.53014307e-01,1.00000000e-02
2.22000000e+00,7.82485866e-01,-1.72924498e-01,1.00000000e-02
2.23000000e+00,7.77045038e-01,-1.92667488e-01,1.00000000e-02
2.24000000e+00,7.71092379e-01,-2.12230132e-01,1.00000000e-02
2.25000000e+00,7.64635312e-01,-2.31599637e-01,1.00000000e-02
2.26000000e+00,7.57681594e-01,-2.50763568e-01,1.00000000e-02
2.27000000e+00,7.50239292e-01,-2.69709864e-01,1.00000000e-02
2.28000000e+00,7.42316764e-01,-2.88426835e-01,1.00000000e-02
2.29000000e+00,7.33922630e-01,-3.06903177e-01,1.00000000e-02
2.30000000e+00,7.25065758e-01,-3.25127966e-01,1.00000000e-02
2.31000000e+00,7.15755237e-01,-3.43090669e-01,1.00000000e-02
2.32000000e+00,7.06000356e-01,-3.60781136e-01,1.00000000e-02
2.33000000e+00,6.95810585e-01,-3.78189608e-01,1.00000000e-02
2.34000000e+00,6.85195555e-01,-3.95306710e-01,1.00000000e-02
2.35000000e+00,6.74165033e-01,-4.12123445e-01,1.00000000e-02
2.36000000e+00,6.62728908e-01,-4.28631198e-01,1.00000000e-02
2.37000000e+00,6.50897171e-01,-4.44821724e-01,1.00000000e-02
2.38000000e+00,6.38679895e-01,-4.60687141e-01,1.00000000e-02
2.39000000e+00,6.26087223e-01,-4.76219926e-01,1.00000000e-02
2.40000000e+00,6.13129345e-01,-4.91412905e-01,1.00000000e-02
2.41000000e+00,5.99816492e-01,-5.06259244e-01,1.00000000e-02
2.42000000e+00,5.86158914e-01,-5.20752437e-01,1.00000000e-02
2.43000000e+00,5.72166870e-01,-5.34886299e-01,1.00000000e-02
2.44000000e+00,5.57850620e-01,-5.48654951e-01,1.00000000e-02
2.45000000e+00,5.43220408e-01,-5.62052811e-01,1.00000000e-02
2.46000000e+00,5.28286458e-01,-5.75074581e-01,1.00000000e-02
2.47000000e+00,5.13058962e-01,-5.87715235e-01,1.00000000e-02
2.48000000e+00,4.97548073e-01,-5.99970008e-01,1.00000000e-02
2.49000000e+00,4.81763902e-01,-6.11834378e-01,1.00000000e-02
2.50000000e+00,4.65716508e-01,-6.23304060e-01,1.00000000e-02
2.51000000e+00,4.49415899e-01,-6.34374992e-01,1.00000000e-02
2.52000000e+00,4.32872026e-01,-6.45043317e-01,1.00000000e-02
2.53000000e+00,4.16094781e-01,-6.55305378e-01,1.00000000e-02
2.54000000e+00,3.99093999e-01,-6.65157702e-01,1.00000000e-02
2.55000000e+00,3.81879453e-01,-6.74596989e-01,1.00000000e-02
2.56000000e+00,3.64460862e-01,-6.83620103e-01,1.00000000e-02
2.57000000e+00,3.46847887e-01,-6.92224057e-01,1.00000000e-02
2.58000000e+00,3.29050137e-01,-7.00406005e-01,1.00000000e-02
2.59000000e+00,3.11077170e-01,-7.08163234e-01,1.00000000e-02
2.60000000e+00,2.92938501e-01,-7.15493153e-01,1.00000000e-02
2.61000000e+00,2.74643604e-01,-7.22393283e-01,1.00000000e-02
2.62000000e+00,2.56201920e-01,-7.28861255e-01,1.00000000e-02
2.63000000e+00,2.37622862e-01,-7.34894796e-01,1.00000000e-02
2.64000000e+00,2.18915820e-01,-7.40491729e-01,1.00000000e-02
2.65000000e+00,2.00090175e-01,-7.45649963e-01,1.00000000e-02
2.66000000e+00,1.81155299e-01,-7.50367494e-01,1.00000000e-02
2.67000000e+00,1.62120566e-01,-7.54642395e-01,1.00000000e-02
2.68000000e+00,1.42995363e-01,-7.58472819e-01,1.00000000e-02
2.69000000e+00,1.23789096e-01,-7.61856996e-01,1.00000000e-02
2.70000000e+00,1.04511198e-01,-7.64793230e-01,1.00000000e-02
2.71000000e+00,8.51711395e-02,-7.67279903e-01,1.00000000e-02
2.72000000e+00,6.57784382e-02,-7.69315473e-01,1.00000000e-02
2.73000000e+00,4.63426649e-02,-7.70898479e-01,1.00000000e-02
2.74000000e+00,2.68734545e-02,-7.72027541e-01,1.00000000e-02
2.75000000e+00,7.38051312e-03,-7.72701368e-01,1.00000000e-02
2.76000000e+00,-1.21263729e-02,-7.72918763e-01,1.00000000e-02
2.77000000e+00,-3.16373296e-02,-7.72678623e-01,1.00000000e-02
2.78000000e+00,-5.11423883e-02,-7.71979955e-01,1.00000000e-02
2.79000000e+00,-7.06314783e-02,-7.70821878e-01,1.00000000e-02
2.80000000e+00,-9.00944208e-02,-7.69203633e-01,1.00000000e-02
2.81000000e+00,-1.09520923e-01,-7.67124594e-01,1.00000000e-02
2.82000000e+00,-1.28900575e-01,-7.64584278e-01,1.00000000e-02
2.83000000e+00,-1.48222842e-01,-7.61582353e-01,1.00000000e-02
2.84000000e+00,-1.67477064e-01,-7.58118657e-01,1.00000000e-02
2.85000000e+00,-1.86652453e-01,-7.54193202e-01,1.00000000e-02
2.86000000e+00,-2.05738091e-01,-7.49806196e-01,1.00000000e-02
2.87000000e+00,-2.24722930e-01,-7.44958047e-01,1.00000000e-02
2.88000000e+00,-2.43595792e-01,-7.39649387e-01,1.00000000e-02
2.89000000e+00,-2.62345372e-01,-7.33881078e-01,1.00000000e-02
2.90000000e+00,-2.80960240e-01,-7.27654232e-01,1.00000000e-02
2.91000000e+00,-2.99428845e-01,-7.20970224e-01,1.00000000e-02
2.92000000e+00,-3.17739523e-01,-7.13830708e-01,1.00000000e-02
2.93000000e+00,-3.35880500e-01,-7.06237631e-01,1.00000000e-02
2.94000000e+00,-3.53839904e-01,-6.98193248e-01,1.00000000e-02
2.95000000e+00,-3.71605769e-01,-6.89700137e-01,1.00000000e-02
2.96000000e+00,-3.89166052e-01,-6.80761215e-01,1.00000000e-02
2.97000000e+00,-4.06508642e-01,-6.71379750e-01,1.00000000e-02
2.98000000e+00,-4.23621370e-01,-6.61559376e-01,1.00000000e-02
2.99000000e+00,-4.40492030e-01,-6.51304104e-01,1.00000000e-02
3.00000000e+00,-4.57108390e-01,-6.40618337e-01,1.00000000e-02
3.01000000e+00,-4.73458212e-01,-6.29506879e-01,1.00000000e-02
3.02000000e+00,-4.89529267e-01,-6.17974948e-01,1.00000000e-02
3.03000000e+00,-5.05309356e-01,-6.06028183e-01,1.00000000e-02
3.04000000e+00,-5.20786331e-01,-5.93672652e-01,1.00000000e-02
3.05000000e+00,-5.35948116e-01,-5.80914862e-01,1.00000000e-02
3.06000000e+00,-5.50782726e-01,-5.67761761e-01,1.00000000e-02
3.07000000e+00,-5.65278296e-01,-5.54220747e-01,1.00000000e-02
3.08000000e+00,-5.79423098e-01,-5.40299666e-01,1.00000000e-02
3.09000000e+00,-5.93205570e-01,-5.26006813e-01,1.00000000e-02
3.10000000e+00,-6.06614335e-01,-5.11350937e-01,1.00000000e-02
3.11000000e+00,-6.19638234e-01,-4.96341234e-01,1.00000000e-02
3.12000000e+00,-6.32266342e-01,-4.80987345e-01,1.00000000e-02
3.13000000e+00,-6.44488000e-01,-4.65299349e-01,1.00000000e-02
3.14000000e+00,-6.56292835e-01,-4.49287756e-01,1.00000000e-02
3.15000000e+00,-6.67670789e-01,-4.32963501e-01,1.00000000e-02
3.16000000e+00,-6.78612138e-01,-4.16337929e-01,1.00000000e-02
3.17000000e+00,-6.89107521e-01,-3.99422783e-01,1.00000000e-02
3.18000000e+00,-6.99147959e-01,-3.82230191e-01,1.00000000e-02
3.19000000e+00,-7.08724881e-01,-3.64772650e-01,1.00000000e-02
3.20000000e+00,-7.17830140e-01,-3.47063007e-01,1.00000000e-02
3.21000000e+00,-7.26456039e-01,-3.29114440e-01,1.00000000e-02
3.22000000e+00,-7.34595346e-01,-3.10940438e-01,1.00000000e-02
3.23000000e+00,-7.42241312e-01,-2.92554780e-01,1.00000000e-02
3.24000000e+00,-7.49387689e-01,-2.73971510e-01,1.00000000e-02
3.25000000e+00,-7.56028743e-01,-2.55204912e-01,1.00000000e-02
