time,u0,u1,tau
0.00000000e+00,1.00000000e+00,1.00000000e-01,1.00000000e-02
1.00000000e-02,1.00007820e+00,5.98167427e-02,1.00000000e-02
2.00000000e-02,9.98595253e-01,1.99798036e-02,1.00000000e-02
3.00000000e-02,9.95591861e-01,-1.94585872e-02,1.00000000e-02
4.00000000e-02,9.90310010e-01,-5.82005799e-02,1.00000000e-02
5.00000000e-02,9.83661636e-01,-9.61542993e-02,1.00000000e-02
6.00000000e-02,9.75632957e-01,-1.33529518e-01,1.00000000e-02
7.00000000e-02,9.66294522e-01,-1.70128278e-01,1.00000000e-02
8.00000000e-02,9.55707542e-01,-2.05968450e-01,1.00000000e-02
9.00000000e-02,9.43906355e-01,-2.41019886e-01,1.00000000e-02
1.00000000e-01,9.30945503e-01,-2.75252784e-01,1.00000000e-02
1.10000000e-01,9.16871318e-01,-3.08646283e-01,1.00000000e-02
1.20000000e-01,9.01731599e-01,-3.41176723e-01,1.00000000e-02
1.30000000e-01,8.85573789e-01,-3.72824253e-01,1.00000000e-02
1.40000000e-01,8.68444526e-01,-4.03570567e-01,1.00000000e-02
1.50000000e-01,8.50390157e-01,-4.33399159e-01,1.00000000e-02
1.60000000e-01,8.31456391e-01,-4.62295404e-01,1.00000000e-02
1.70000000e-01,8.11688349e-01,-4.90246365e-01,1.00000000e-02
1.80000000e-01,7.91130511e-01,-5.17240795e-01,1.00000000e-02
1.90000000e-01,7.69826668e-01,-5.43269052e-01,1.00000000e-02
2.00000000e-01,7.47819892e-01,-5.68323034e-01,1.00000000e-02
2.10000000e-01,7.25152498e-01,-5.92396121e-01,1.00000000e-02
2.20000000e-01,7.01866020e-01,-6.15483096e-01,1.00000000e-02
2.30000000e-01,6.78001183e-01,-6.37580086e-01,1.00000000e-02
2.40000000e-01,6.53597879e-01,-6.58684493e-01,1.00000000e-02
2.50000000e-01,6.28695155e-01,-6.78794921e-01,1.00000000e-02
2.60000000e-01,6.03331193e-01,-6.97911117e-01,1.00000000e-02
2.70000000e-01,5.77543303e-01,-7.16033901e-01,1.00000000e-02
2.80000000e-01,5.51367916e-01,-7.33165099e-01,1.00000000e-02
2.90000000e-01,5.24840578e-01,-7.49307487e-01,1.00000000e-02
3.00000000e-01,4.97995957e-01,-7.64464724e-01,1.00000000e-02
3.10000000e-01,4.70867837e-01,-7.78641293e-01,1.00000000e-02
3.20000000e-01,4.43489132e-01,-7.91842450e-01,1.00000000e-02
3.30000000e-01,4.15891891e-01,-8.04074160e-01,1.00000000e-02
3.40000000e-01,3.88107310e-01,-8.15343053e-01,1.00000000e-02
3.50000000e-01,3.60165747e-01,-8.25656372e-01,1.00000000e-02
3.60000000e-01,3.32096738e-01,-8.35021924e-01,1.00000000e-02
3.70000000e-01,3.03929011e-01,-8.43448039e-01,1.00000000e-02
3.80000000e-01,2.75690509e-01,-8.50943527e-01,1.00000000e-02
3.90000000e-01,2.47408411e-01,-8.57517644e-01,1.00000000e-02
4.00000000e-01,2.19109148e-01,-8.63180051e-01,1.00000000e-02
4.10000000e-01,1.90818431e-01,-8.67940787e-01,1.00000000e-02
4.20000000e-01,1.62561271e-01,-8.71810236e-01,1.00000000e-02
4.30000000e-01,1.34362003e-01,-8.74799104e-01,1.00000000e-02
4.40000000e-01,1.06244309e-01,-8.76918392e-01,1.00000000e-02
4.50000000e-01,7.82312406e-02,-8.78179379e-01,1.00000000e-02
4.60000000e-01,5.03452442e-02,-8.78593598e-01,1.00000000e-02
4.70000000e-01,2.26081807e-02,-8.78172828e-01,1.00000000e-02
4.80000000e-01,-4.95865056e-03,-8.76929072e-01,1.00000000e-02
4.90000000e-01,-3.23344917e-02,-8.74874553e-01,1.00000000e-02
5.00000000e-01,-5.94991054e-02,-8.72021701e-01,1.00000000e-02
5.10000000e-01,-8.64327562e-02,-8.68383147e-01,1.00000000e-02
5.20000000e-01,-1.13116192e-01,-8.63971720e-01,1.00000000e-02
5.30000000e-01,-1.39530629e-01,-8.58800439e-01,1.00000000e-02
5.40000000e-01,-1.65657733e-01,-8.52882514e-01,1.00000000e-02
5.50000000e-01,-1.91479609e-01,-8.46231346e-01,1.00000000e-02
5.60000000e-01,-2.16978787e-01,-8.38860526e-01,1.00000000e-02
5.70000000e-01,-2.42138211e-01,-8.30783838e-01,1.00000000e-02
5.80000000e-01,-2.66941232e-01,-8.22015260e-01,1.00000000e-02
5.90000000e-01,-2.91371598e-01,-8.12568968e-01,1.00000000e-02
6.00000000e-01,-3.15413447e-01,-8.02459339e-01,1.00000000e-02
6.10000000e-01,-3.39051308e-01,-7.91700956e-01,1.00000000e-02
6.20000000e-01,-3.62270092e-01,-7.80308613e-01,1.00000000e-02
6.30000000e-01,-3.85055096e-01,-7.68297316e-01,1.00000000e-02
6.40000000e-01,-4.07392001e-01,-7.55682292e-01,1.00000000e-02
6.50000000e-01,-4.29266872e-01,-7.42478987e-01,1.00000000e-02
6.60000000e-01,-4.50666168e-01,-7.28703075e-01,1.00000000e-02
6.70000000e-01,-4.71576738e-01,-7.14370458e-01,1.00000000e-02
6.80000000e-01,-4.91985835e-01,-6.99497267e-01,1.00000000e-02
6.90000000e-01,-5.11881119e-01,-6.84099867e-01,1.00000000e-02
7.00000000e-01,-5.31250666e-01,-6.68194854e-01,1.00000000e-02
7.10000000e-01,-5.50082977e-01,-6.51799058e-01,1.00000000e-02
7.20000000e-01,-5.68366990e-01,-6.34929538e-01,1.00000000e-02
7.30000000e-01,-5.86092089e-01,-6.17603580e-01,1.00000000e-02
7.40000000e-01,-6.03248117e-01,-5.99838695e-01,1.00000000e-02
7.50000000e-01,-6.19825386e-01,-5.81652611e-01,1.00000000e-02
7.60000000e-01,-6.35814691e-01,-5.63063268e-01,1.00000000e-02
7.70000000e-01,-6.51207322e-01,-5.44088809e-01,1.00000000e-02
7.80000000e-01,-6.65995078e-01,-5.24747572e-01,1.00000000e-02
7.90000000e-01,-6.80170275e-01,-5.05058077e-01,1.00000000e-02
8.00000000e-01,-6.93725765e-01,-4.85039014e-01,1.00000000e-02
8.10000000e-01,-7.06654940e-01,-4.64709231e-01,1.00000000e-02
8.20000000e-01,-7.18951750e-01,-4.44087719e-01,1.00000000e-02
8.30000000e-01,-7.30610712e-01,-4.23193594e-01,1.00000000e-02
8.40000000e-01,-7.41626916e-01,-4.02046081e-01,1.00000000e-02
8.50000000e-01,-7.51996039e-01,-3.80664493e-01,1.00000000e-02
8.60000000e-01,-7.61714351e-01,-3.59068216e-01,1.00000000e-02
8.70000000e-01,-7.70778723e-01,-3.37276683e-01,1.00000000e-02
8.80000000e-01,-7.79186628e-01,-3.15309356e-01,1.00000000e-02
8.90000000e-01,-7.86936153e-01,-2.93185702e-01,1.00000000e-02
9.00000000e-01,-7.94025997e-01,-2.70925172e-01,1.00000000e-02
9.10000000e-01,-8.00455474e-01,-2.48547174e-01,1.00000000e-02
9.20000000e-01,-8.06224513e-01,-2.26071051e-01,1.00000000e-02
9.30000000e-01,-8.11333655e-01,-2.03516058e-01,1.00000000e-02
9.40000000e-01,-8.15784056e-01,-1.80901335e-01,1.00000000e-02
9.50000000e-01,-8.19577474e-01,-1.58245884e-01,1.00000000e-02
9.60000000e-01,-8.22716271e-01,-1.35568544e-01,1.00000000e-02
9.70000000e-01,-8.25203400e-01,-1.12887967e-01,1.00000000e-02
9.80000000e-01,-8.27042398e-01,-9.02225941e-02,1.00000000e-02
9.90000000e-01,-8.28237377e-01,-6.75906325e-02,1.00000000e-02
1.00000000e+00,-8.28793007e-01,-4.50100323e-02,1.00000000e-02
1.01000000e+00,-8.28714509e-01,-2.24984647e-02,1.00000000e-02
1.02000000e+00,-8.28007637e-01,-7.33008581e-05,1.00000000e-02
1.03000000e+00,-8.26678659e-01,2.22484087e-02,1.00000000e-02
1.04000000e+00,-8.24734347e-01,4.44499530e-02,1.00000000e-02
1.05000000e+00,-8.22181951e-01,6.65149789e-02,1.00000000e-02
1.06000000e+00,-8.19029186e-01,8.84275079e-02,1.00000000e-02
1.07000000e+00,-8.15284208e-01,1.10171952e-01,1.00000000e-02
1.08000000e+00,-8.10955594e-01,1.31733128e-01,1.00000000e-02
1.09000000e+00,-8.06052321e-01,1.53096271e-01,1.00000000e-02
1.10000000e+00,-8.00583741e-01,1.74247044e-01,1.00000000e-02
1.11000000e+00,-7.94559564e-01,1.95171552e-01,1.00000000e-02
1.12000000e+00,-7.87989828e-01,2.15856345e-01,1.00000000e-02
1.13000000e+00,-7.80884881e-01,2.36288431e-01,1.00000000e-02
1.14000000e+00,-7.73255355e-01,2.56455278e-01,1.00000000e-02
1.15000000e+00,-7.65112144e-01,2.76344821e-01,1.00000000e-02
1.16000000e+00,-7.56466376e-01,2.95945462e-01,1.00000000e-02
1.17000000e+00,-7.47329398e-01,3.15246072e-01,1.00000000e-02
1.18000000e+00,-7.37712747e-01,3.34235996e-01,1.00000000e-02
1.19000000e+00,-7.27628127e-01,3.52905043e-01,1.00000000e-02
1.20000000e+00,-7.17087392e-01,3.71243491e-01,1.00000000e-02
1.21000000e+00,-7.06102520e-01,3.89242079e-01,1.00000000e-02
1.22000000e+00,-6.94685593e-01,4.06892006e-01,1.00000000e-02
1.23000000e+00,-6.82848780e-01,4.24184920e-01,1.00000000e-02
1.24000000e+00,-6.70604312e-01,4.41112914e-01,1.00000000e-02
1.25000000e+00,-6.57964470e-01,4.57668519e-01,1.00000000e-02
1.26000000e+00,-6.44941560e-01,4.73844691e-01,1.00000000e-02
1.27000000e+00,-6.31547905e-01,4.89634805e-01,1.00000000e-02
1.28000000e+00,-6.17795821e-01,5.05032645e-01,1.00000000e-02
1.29000000e+00,-6.03697607e-01,5.20032389e-01,1.00000000e-02
1.30000000e+00,-5.89265530e-01,5.34628600e-01,1.00000000e-02
1.31000000e+00,-5.74511813e-01,5.48816214e-01,1.00000000e-02
1.32000000e+00,-5.59448622e-01,5.62590527e-01,1.00000000e-02
1.33000000e+00,-5.44088059e-01,5.75947183e-01,1.00000000e-02
1.34000000e+00,-5.28442145e-01,5.88882157e-01,1.00000000e-02
1.35000000e+00,-5.12522821e-01,6.01391747e-01,1.00000000e-02
1.36000000e+00,-4.96341933e-01,6.13472560e-01,1.00000000e-02
1.37000000e+00,-4.79911231e-01,6.25121492e-01,1.00000000e-02
1.38000000e+00,-4.63242361e-01,6.36335726e-01,1.00000000e-02
1.39000000e+00,-4.46346859e-01,6.47112706e-01,1.00000000e-02
1.40000000e+00,-4.29236153e-01,6.57450137e-01,1.00000000e-02
1.41000000e+00,-4.11921554e-01,6.67345960e-01,1.00000000e-02
1.42000000e+00,-3.94414261e-01,6.76798350e-01,1.00000000e-02
1.43000000e+00,-3.76725353e-01,6.85805696e-01,1.00000000e-02
1.44000000e+00,-3.58865798e-01,6.94366594e-01,1.00000000e-02
1.45000000e+00,-3.40846444e-01,7.02479835e-01,1.00000000e-02
1.46000000e+00,-3.22678030e-01,7.10144392e-01,1.00000000e-02
1.47000000e+00,-3.04371181e-01,7.17359413e-01,1.00000000e-02
1.48000000e+00,-2.85936414e-01,7.24124210e-01,1.00000000e-02
1.49000000e+00,-2.67384143e-01,7.30438249e-01,1.00000000e-02
1.50000000e+00,-2.48724679e-01,7.36301145e-01,1.00000000e-02
1.51000000e+00,-2.29968238e-01,7.41712649e-01,1.00000000e-02
1.52000000e+00,-2.11124944e-01,7.46672645e-01,1.00000000e-02
1.53000000e+00,-1.92204835e-01,7.51181146e-01,1.00000000e-02
1.54000000e+00,-1.73217868e-01,7.55238281e-01,1.00000000e-02
1.55000000e+00,-1.54173926e-01,7.58844298e-01,1.00000000e-02
1.56000000e+00,-1.35082820e-01,7.61999555e-01,1.00000000e-02
1.57000000e+00,-1.15954303e-01,7.64704517e-01,1.00000000e-02
1.58000000e+00,-9.67980661e-02,7.66959759e-01,1.00000000e-02
1.59000000e+00,-7.76237531e-02,7.68765955e-01,1.00000000e-02
1.60000000e+00,-5.84409622e-02,7.70123884e-01,1.00000000e-02
1.61000000e+00,-3.92592534e-02,7.71034430e-01,1.00000000e-02
1.62000000e+00,-2.00881546e-02,7.71498575e-01,1.00000000e-02
1.63000000e+00,-9.37166799e-04,7.71517409e-01,1.00000000e-02
1.64000000e+00,1.81842300e-02,7.71092125e-01,1.00000000e-02
1.65000000e+00,3.72665716e-02,7.70224027e-01,1.00000000e-02
1.66000000e+00,5.63004047e-02,7.68914528e-01,1.00000000e-02
1.67000000e+00,7.52762827e-02,7.67165156e-01,1.00000000e-02
1.68000000e+00,9.41847611e-02,7.64977561e-01,1.00000000e-02
1.69000000e+00,1.13016394e-01,7.62353512e-01,1.00000000e-02
1.70000000e+00,1.31761732e-01,7.59294912e-01,1.00000000e-02
1.71000000e+00,1.50411317e-01,7.55803797e-01,1.00000000e-02
1.72000000e+00,1.68955684e-01,7.51882343e-01,1.00000000e-02
1.73000000e+00,1.87385357e-01,7.47532877e-01,1.00000000e-02
1.74000000e+00,2.05690847e-01,7.42757877e-01,1.00000000e-02
1.75000000e+00,2.23862658e-01,7.37559986e-01,1.00000000e-02
1.76000000e+00,2.41891281e-01,7.31942015e-01,1.00000000e-02
1.77000000e+00,2.59767199e-01,7.25906952e-01,1.00000000e-02
1.78000000e+00,2.77480886e-01,7.19457970e-01,1.00000000e-02
1.79000000e+00,2.95022816e-01,7.12598433e-01,1.00000000e-02
1.80000000e+00,3.12383460e-01,7.05331907e-01,1.00000000e-02
1.81000000e+00,3.29553294e-01,6.97662166e-01,1.00000000e-02
1.82000000e+00,3.46522803e-01,6.89593199e-01,1.00000000e-02
1.83000000e+00,3.63282490e-01,6.81129218e-01,1.00000000e-02
1.84000000e+00,3.79822875e-01,6.72274665e-01,1.00000000e-02
1.85000000e+00,3.96134513e-01,6.63034222e-01,1.00000000e-02
1.86000000e+00,4.12207994e-01,6.53412812e-01,1.00000000e-02
1.87000000e+00,4.28033955e-01,6.43415608e-01,1.00000000e-02
1.88000000e+00,4.43603090e-01,6.33048041e-01,1.00000000e-02
1.89000000e+00,4.58906159e-01,6.22315802e-01,1.00000000e-02
1.90000000e+00,4.73934001e-01,6.11224845e-01,1.00000000e-02
1.91000000e+00,4.88677543e-01,5.99781398e-01,1.00000000e-02
1.92000000e+00,5.03127813e-01,5.87991957e-01,1.00000000e-02
1.93000000e+00,5.17275953e-01,5.75863297e-01,1.00000000e-02
1.94000000e+00,5.31113231e-01,5.63402466e-01,1.00000000e-02
1.95000000e+00,5.44631055e-01,5.50616792e-01,1.00000000e-02
1.96000000e+00,5.57820988e-01,5.37513880e-01,1.00000000e-02
1.97000000e+00,5.70674757e-01,5.24101613e-01,1.00000000e-02
1.98000000e+00,5.83184275e-01,5.10388145e-01,1.00000000e-02
1.99000000e+00,5.95341645e-01,4.96381906e-01,1.00000000e-02
2.00000000e+00,6.07139184e-01,4.82091591e-01,1.00000000e-02
2.01000000e+00,6.18569432e-01,4.67526163e-01,1.00000000e-02
2.02000000e+00,6.29625165e-01,4.52694837e-01,1.00000000e-02
2.03000000e+00,6.40299414e-01,4.37607083e-01,1.00000000e-02
2.04000000e+00,6.50585472e-01,4.22272615e-01,1.00000000e-02
2.05000000e+00,6.60476913e-01,4.06701378e-01,1.00000000e-02
2.06000000e+00,6.69967603e-01,3.90903547e-01,1.00000000e-02
2.07000000e+00,6.79051711e-01,3.74889508e-01,1.00000000e-02
2.08000000e+00,6.87723721e-01,3.58669853e-01,1.00000000e-02
2.09000000e+00,6.95978447e-01,3.42255363e-01,1.00000000e-02
2.10000000e+00,7.03811037e-01,3.25657001e-01,1.00000000e-02
2.11000000e+00,7.11216990e-01,3.08885892e-01,1.00000000e-02
2.12000000e+00,7.18192159e-01,2.91953312e-01,1.00000000e-02
2.13000000e+00,7.24732763e-01,2.74870671e-01,1.00000000e-02
2.14000000e+00,7.30835392e-01,2.57649501e-01,1.00000000e-02
2.15000000e+00,7.36497014e-01,2.40301437e-01,1.00000000e-02
2.16000000e+00,7.41714982e-01,2.22838201e-01,1.00000000e-02
2.17000000e+00,7.46487035e-01,2.05271583e-01,1.00000000e-02
2.18000000e+00,7.50811303e-01,1.87613430e-01,1.00000000e-02
2.19000000e+00,7.54686311e-01,1.69875621e-01,1.00000000e-02
2.20000000e+00,7.58110977e-01,1.52070056e-01,1.00000000e-02
2.21000000e+00,7.61084613e-01,1.34208635e-01,1.00000000e-02
2.22000000e+00,7.63606925e-01,1.16303240e-01,1.00000000e-02
2.23000000e+00,7.65678011e-01,9.83657203e-02,1.00000000e-02
2.24000000e+00,7.67298355e-01,8.04078727e-02,1.00000000e-02
2.25000000e+00,7.68468826e-01,6.24414264e-02,1.00000000e-02
2.26000000e+00,7.69190674e-01,4.44780255e-02,1.00000000e-02
2.27000000e+00,7.69465517e-01,2.65292132e-02,1.00000000e-02
2.28000000e+00,7.69295343e-01,8.60641563e-03,1.00000000e-02
2.29000000e+00,7.68682494e-01,-9.27907270e-03,1.00000000e-02
2.30000000e+00,7.67629663e-01,-2.71161040e-02,1.00000000e-02
2.31000000e+00,7.66139881e-01,-4.48936907e-02,1.00000000e-02
2.32000000e+00,7.64216508e-01,-6.26010190e-02,1.00000000e-02
2.33000000e+00,7.61863222e-01,-8.02274611e-02,1.00000000e-02
2.34000000e+00,7.59084005e-01,-9.77625870e-02,1.00000000e-02
2.35000000e+00,7.55883134e-01,-1.15196175e-01,1.00000000e-02
2.36000000e+00,7.52265166e-01,-1.32518223e-01,1.00000000e-02
2.37000000e+00,7.48234927e-01,-1.49718954e-01,1.00000000e-02
2.38000000e+00,7.43797496e-01,-1.66788830e-01,1.00000000e-02
2.39000000e+00,7.38958192e-01,-1.83718554e-01,1.00000000e-02
2.40000000e+00,7.33722561e-01,-2.00499078e-01,1.00000000e-02
2.41000000e+00,7.28096358e-01,-2.17121612e-01,1.00000000e-02
2.42000000e+00,7.22085538e-01,-2.33577623e-01,1.00000000e-02
2.43000000e+00,7.15696239e-01,-2.49858840e-01,1.00000000e-02
2.44000000e+00,7.08934766e-01,-2.65957259e-01,1.00000000e-02
2.45000000e+00,7.01807580e-01,-2.81865145e-01,1.00000000e-02
2.46000000e+00,6.94321280e-01,-2.97575029e-01,1.00000000e-02
2.47000000e+00,6.86482593e-01,-3.13079710e-01,1.00000000e-02
2.48000000e+00,6.78298358e-01,-3.28372258e-01,1.00000000e-02
2.49000000e+00,6.69775512e-01,-3.43446005e-01,1.00000000e-02
2.50000000e+00,6.60921080e-01,-3.58294550e-01,1.00000000e-02
2.51000000e+00,6.51742160e-01,-3.72911752e-01,1.00000000e-02
2.52000000e+00,6.42245910e-01,-3.87291725e-01,1.00000000e-02
2.53000000e+00,6.32439538e-01,-4.01428839e-01,1.00000000e-02
2.54000000e+00,6.22330292e-01,-4.15317711e-01,1.00000000e-02
2.55000000e+00,6.11925446e-01,-4.28953198e-01,1.00000000e-02
2.56000000e+00,6.01232292e-01,-4.42330396e-01,1.00000000e-02
2.57000000e+00,5.90258131e-01,-4.55444629e-01,1.00000000e-02
2.58000000e+00,5.79010263e-01,-4.68291447e-01,1.00000000e-02
2.59000000e+00,5.67495979e-01,-4.80866612e-01,1.00000000e-02
2.60000000e+00,5.55722553e-01,-4.93166096e-01,1.00000000e-02
2.61000000e+00,5.43697236e-01,-5.05186072e-01,1.00000000e-02
2.62000000e+00,5.31427248e-01,-5.16922903e-01,1.00000000e-02
2.63000000e+00,5.18919777e-01,-5.28373139e-01,1.00000000e-02
2.64000000e+00,5.06181967e-01,-5.39533503e-01,1.00000000e-02
2.65000000e+00,4.93220918e-01,-5.50400886e-01,1.00000000e-02
2.66000000e+00,4.80043683e-01,-5.60972338e-01,1.00000000e-02
2.67000000e+00,4.66657263e-01,-5.71245058e-01,1.00000000e-02
2.68000000e+00,4.53068604e-01,-5.81216386e-01,1.00000000e-02
2.69000000e+00,4.39284599e-01,-5.90883796e-01,1.00000000e-02
2.70000000e+00,4.25312082e-01,-6.00244886e-01,1.00000000e-02
2.71000000e+00,4.11157832e-01,-6.09297371e-01,1.00000000e-02
2.72000000e+00,3.96828569e-01,-6.18039074e-01,1.00000000e-02
2.73000000e+00,3.82330957e-01,-6.26467917e-01,1.00000000e-02
2.74000000e+00,3.67671606e-01,-6.34581916e-01,1.00000000e-02
2.75000000e+00,3.52857071e-01,-6.42379173e-01,1.00000000e-02
2.76000000e+00,3.37893856e-01,-6.49857869e-01,1.00000000e-02
2.77000000e+00,3.22788416e-01,-6.57016255e-01,1.00000000e-02
2.78000000e+00,3.07547162e-01,-6.63852649e-01,1.00000000e-02
2.79000000e+00,2.92176461e-01,-6.70365428e-01,1.00000000e-02
2.80000000e+00,2.76682643e-01,-6.76553025e-01,1.00000000e-02
2.81000000e+00,2.61072002e-01,-6.82413920e-01,1.00000000e-02
2.82000000e+00,2.45350806e-01,-6.87946638e-01,1.00000000e-02
2.83000000e+00,2.29525297e-01,-6.93149746e-01,1.00000000e-02
2.84000000e+00,2.13601697e-01,-6.98021846e-01,1.00000000e-02
2.85000000e+00,1.97586217e-01,-7.02561574e-01,1.00000000e-02
2.86000000e+00,1.81485059e-01,-7.06767598e-01,1.00000000e-02
2.87000000e+00,1.65304421e-01,-7.10638613e-01,1.00000000e-02
2.88000000e+00,1.49050507e-01,-7.14173344e-01,1.00000000e-02
2.89000000e+00,1.32729533e-01,-7.17370538e-01,1.00000000e-02
2.90000000e+00,1.16347727e-01,-7.20228972e-01,1.00000000e-02
2.91000000e+00,9.99113433e-02,-7.22747448e-01,1.00000000e-02
2.92000000e+00,8.34266631e-02,-7.24924792e-01,1.00000000e-02
2.93000000e+00,6.69000037e-02,-7.26759861e-01,1.00000000e-02
2.94000000e+00,5.03377235e-02,-7.28251539e-01,1.00000000e-02
2.95000000e+00,3.37462282e-02,-7.29398744e-01,1.00000000e-02
2.96000000e+00,1.71319771e-02,-7.30200428e-01,1.00000000e-02
2.97000000e+00,5.01488548e-04,-7.30655581e-01,1.00000000e-02
2.98000000e+00,-1.61386543e-02,-7.30763236e-01,1.00000000e-02
2.99000000e+00,-3.27817982e-02,-7.30522473e-01,1.00000000e-02
3.00000000e+00,-4.94212148e-02,-7.29932423e-01,1.00000000e-02
3.01000000e+00,-6.60500961e-02,-7.28992277e-01,1.00000000e-02
3.02000000e+00,-8.26615496e-02,-7.27701287e-01,1.00000000e-02
3.03000000e+00,-9.92485948e-02,-7.26058777e-01,1.00000000e-02
3.04000000e+00,-1.15804160e-01,-7.24064150e-01,1.00000000e-02
3.05000000e+00,-1.32321077e-01,-7.21716891e-01,1.00000000e-02
3.06000000e+00,-1.48792083e-01,-7.19016580e-01,1.00000000e-02
3.07000000e+00,-1.65209813e-01,-7.15962898e-01,1.00000000e-02
3.08000000e+00,-1.81566803e-01,-7.12555636e-01,1.00000000e-02
3.09000000e+00,-1.97855487e-01,-7.08794703e-01,1.00000000e-02
3.10000000e+00,-2.14068197e-01,-7.04680136e-01,1.00000000e-02
3.11000000e+00,-2.30197162e-01,-7.00212113e-01,1.00000000e-02
3.12000000e+00,-2.46234514e-01,-6.95390955e-01,1.00000000e-02
3.13000000e+00,-2.62172282e-01,-6.90217142e-01,1.00000000e-02
3.14000000e+00,-2.78002402e-01,-6.84691321e-01,1.00000000e-02
3.15000000e+00,-2.93716716e-01,-6.78814318e-01,1.00000000e-02
3.16000000e+00,-3.09306977e-01,-6.72587144e-01,1.00000000e-02
3.17000000e+00,-3.24764854e-01,-6.66011006e-01,1.00000000e-02
3.18000000e+00,-3.40081939e-01,-6.59087322e-01,1.00000000e-02
3.19000000e+00,-3.55249749e-01,-6.51817724e-01,1.00000000e-02
3.20000000e+00,-3.70259737e-01,-6.44204071e-01,1.00000000e-02
3.21000000e+00,-3.85103299e-01,-6.36248457e-01,1.00000000e-02
3.22000000e+00,-3.99771784e-01,-6.27953222e-01,1.00000000e-02
3.23000000e+00,-4.14256498e-01,-6.19320957e-01,1.00000000e-02
3.24000000e+00,-4.28548721e-01,-6.10354516e-01,1.00000000e-02
3.25000000e+00,-4.42639715e-01,-6.01057020e-01,1.00000000e-02
3.26000000e+00,-4.56520732e-01,-5.91431868e-01,1.00000000e-02
