time,u0,u1,tau
0.00000000e+00,1.00000000e+00,1.00000000e-01,1.00000000e-02
1.00000000e-02,1.00007820e+00,5.98167427e-02,1.00000000e-02
2.00000000e-02,9.98595253e-01,1.99798036e-02,1.00000000e-02
3.00000000e-02,9.95591861e-01,-1.94585872e-02,1.00000000e-02
4.00000000e-02,9.85041193e-01,-9.69072591e-02,1.00000000e-02
5.00000000e-02,9.71165663e-01,-1.72737941e-01,1.00000000e-02
6.00000000e-02,9.49465922e-01,-2.45821436e-01,1.00000000e-02
7.00000000e-02,9.24517185e-01,-3.16195585e-01,1.00000000e-02
8.00000000e-02,8.93855433e-01,-3.83978888e-01,1.00000000e-02
9.00000000e-02,8.58690221e-01,-4.48112783e-01,1.00000000e-02
1.00000000e-01,8.19253686e-01,-5.08853556e-01,1.00000000e-02
1.10000000e-01,7.75893052e-01,-5.65808317e-01,1.00000000e-02
1.20000000e-01,7.29003101e-01,-6.18811185e-01,1.00000000e-02
1.30000000e-01,6.78922029e-01,-6.67715575e-01,1.00000000e-02
1.40000000e-01,6.26014042e-01,-7.12390499e-01,1.00000000e-02
1.50000000e-01,5.70631421e-01,-7.52742572e-01,1.00000000e-02
1.60000000e-01,5.13121350e-01,-7.88701165e-01,1.00000000e-02
1.70000000e-01,4.53823868e-01,-8.20221005e-01,1.00000000e-02
1.80000000e-01,3.93069643e-01,-8.47279251e-01,1.00000000e-02
1.90000000e-01,3.31179674e-01,-8.69873434e-01,1.00000000e-02
2.00000000e-01,2.68464427e-01,-8.88019679e-01,1.00000000e-02
2.10000000e-01,2.05223525e-01,-9.01750836e-01,1.00000000e-02
2.20000000e-01,1.41745627e-01,-9.11114855e-01,1.00000000e-02
2.30000000e-01,7.83084786e-02,-9.16173323e-01,1.00000000e-02
2.40000000e-01,1.51791137e-02,-9.17000191e-01,1.00000000e-02
2.50000000e-01,-4.73858540e-02,-9.13680711e-01,1.00000000e-02
2.60000000e-01,-1.09139888e-01,-9.06310572e-01,1.00000000e-02
2.70000000e-01,-1.69846176e-01,-8.94995225e-01,1.00000000e-02
2.80000000e-01,-2.29277309e-01,-8.79849381e-01,1.00000000e-02
2.90000000e-01,-2.87215011e-01,-8.60996670e-01,1.00000000e-02
3.00000000e-01,-3.43449961e-01,-8.38569419e-01,1.00000000e-02
3.10000000e-01,-3.97781721e-01,-8.12708530e-01,1.00000000e-02
3.20000000e-01,-4.50018775e-01,-7.83563428e-01,1.00000000e-02
3.30000000e-01,-4.99978703e-01,-7.51292037e-01,1.00000000e-02
3.40000000e-01,-5.47488479e-01,-7.16060762e-01,1.00000000e-02
3.50000000e-01,-5.92384893e-01,-6.78044433e-01,1.00000000e-02
3.60000000e-01,-6.34515078e-01,-6.37426194e-01,1.00000000e-02
3.70000000e-01,-6.73737140e-01,-5.94397301e-01,1.00000000e-02
3.80000000e-01,-7.09920853e-01,-5.49156811e-01,1.00000000e-02
3.90000000e-01,-7.42948406e-01,-5.01911143e-01,1.00000000e-02
4.00000000e-01,-7.72715168e-01,-4.52873497e-01,1.00000000e-02
4.10000000e-01,-7.99130437e-01,-4.02263127e-01,1.00000000e-02
4.20000000e-01,-8.22118151e-01,-3.50304468e-01,1.00000000e-02
4.30000000e-01,-8.41617521e-01,-2.97226121e-01,1.00000000e-02
4.40000000e-01,-8.57583568e-01,-2.43259711e-01,1.00000000e-02
4.50000000e-01,-8.69987521e-01,-1.88638632e-01,1.00000000e-02
4.60000000e-01,-8.78817071e-01,-1.33596710e-01,1.00000000e-02
4.70000000e-01,-8.84076459e-01,-7.83667965e-02,1.00000000e-02
4.80000000e-01,-8.85786379e-01,-2.31793441e-02,1.00000000e-02
4.90000000e-01,-8.83983697e-01,3.17390291e-02,1.00000000e-02
5.00000000e-01,-8.78720996e-01,8.61669341e-02,1.00000000e-02
5.10000000e-01,-8.70065933e-01,1.39889545e-01,1.00000000e-02
5.20000000e-01,-8.58100439e-01,1.92699842e-01,1.00000000e-02
5.30000000e-01,-8.42919775e-01,2.44399728e-01,1.00000000e-02
5.40000000e-01,-8.24631465e-01,2.94801021e-01,1.00000000e-02
5.50000000e-01,-8.03354130e-01,3.43726275e-01,1.00000000e-02
5.60000000e-01,-7.79216257e-01,3.91009444e-01,1.00000000e-02
5.70000000e-01,-7.52354924e-01,4.36496369e-01,1.00000000e-02
5.80000000e-01,-7.22914518e-01,4.80045097e-01,1.00000000e-02
5.90000000e-01,-6.91045466e-01,5.21526029e-01,1.00000000e-02
6.00000000e-01,-6.56903008e-01,5.60821910e-01,1.00000000e-02
6.10000000e-01,-6.20646036e-01,5.97827678e-01,1.00000000e-02
6.20000000e-01,-5.82436013e-01,6.32450183e-01,1.00000000e-02
6.30000000e-01,-5.42435995e-01,6.64607798e-01,1.00000000e-02
6.40000000e-01,-5.00809761e-01,6.94229947e-01,1.00000000e-02
6.50000000e-01,-4.57721057e-01,7.21256562e-01,1.00000000e-02
6.60000000e-01,-4.13332965e-01,7.45637503e-01,1.00000000e-02
6.70000000e-01,-3.67807390e-01,7.67331952e-01,1.00000000e-02
6.80000000e-01,-3.21304666e-01,7.86307805e-01,1.00000000e-02
6.90000000e-01,-2.73983262e-01,8.02541083e-01,1.00000000e-02
7.00000000e-01,-2.25999601e-01,8.16015379e-01,1.00000000e-02
7.10000000e-01,-1.77507954e-01,8.26721343e-01,1.00000000e-02
7.20000000e-01,-1.28660416e-01,8.34656238e-01,1.00000000e-02
7.30000000e-01,-7.96069394e-02,8.39823555e-01,1.00000000e-02
7.40000000e-01,-3.04954092e-02,8.42232704e-01,1.00000000e-02
7.50000000e-01,1.85282489e-02,8.41898791e-01,1.00000000e-02
7.60000000e-01,6.73199530e-02,8.38842461e-01,1.00000000e-02
7.70000000e-01,1.15737350e-01,8.33089829e-01,1.00000000e-02
7.80000000e-01,1.63639720e-01,8.24672477e-01,1.00000000e-02
7.90000000e-01,2.10887913e-01,8.13627528e-01,1.00000000e-02
8.00000000e-01,2.57344329e-01,7.99997765e-01,1.00000000e-02
8.10000000e-01,3.02872954e-01,7.83831811e-01,1.00000000e-02
8.20000000e-01,3.47339462e-01,7.65184337e-01,1.00000000e-02
8.30000000e-01,3.90611390e-01,7.44116297e-01,1.00000000e-02
8.40000000e-01,4.32558384e-01,7.20695171e-01,1.00000000e-02
8.50000000e-01,4.73052528e-01,6.94995199e-01,1.00000000e-02
8.60000000e-01,5.11968755e-01,6.67097594e-01,1.00000000e-02
8.70000000e-01,5.49185321e-01,6.37090721e-01,1.00000000e-02
8.80000000e-01,5.84584364e-01,6.05070212e-01,1.00000000e-02
8.90000000e-01,6.18052510e-01,5.71139028e-01,1.00000000e-02
9.00000000e-01,6.49481541e-01,5.35407429e-01,1.00000000e-02
9.10000000e-01,6.78769089e-01,4.97992863e-01,1.00000000e-02
9.20000000e-01,7.05819356e-01,4.59019749e-01,1.00000000e-02
9.30000000e-01,7.30543843e-01,4.18619159e-01,1.00000000e-02
9.40000000e-01,7.52862058e-01,3.76928398e-01,1.00000000e-02
9.50000000e-01,7.72702197e-01,3.34090465e-01,1.00000000e-02
9.60000000e-01,7.90001770e-01,2.90253425e-01,1.00000000e-02
9.70000000e-01,8.04708171e-01,2.45569677e-01,1.00000000e-02
9.80000000e-01,8.16779148e-01,2.00195142e-01,1.00000000e-02
9.90000000e-01,8.26183188e-01,1.54288378e-01,1.00000000e-02
1.00000000e+00,8.32899790e-01,1.08009638e-01,1.00000000e-02
1.01000000e+00,8.36919613e-01,6.15198937e-02,1.00000000e-02
1.02000000e+00,8.38244510e-01,1.49798358e-02,1.00000000e-02
1.03000000e+00,8.36887433e-01,-3.14511213e-02,1.00000000e-02
1.04000000e+00,8.32872206e-01,-7.76158161e-02,1.00000000e-02
1.05000000e+00,8.26233197e-01,-1.23360277e-01,1.00000000e-02
1.06000000e+00,8.17014858e-01,-1.68534601e-01,1.00000000e-02
1.07000000e+00,8.05271187e-01,-2.12993760e-01,1.00000000e-02
1.08000000e+00,7.91065086e-01,-2.56598323e-01,1.00000000e-02
1.09000000e+00,7.74467661e-01,-2.99215074e-01,1.00000000e-02
1.10000000e+00,7.55557464e-01,-3.40717533e-01,1.00000000e-02
1.11000000e+00,7.34419698e-01,-3.80986362e-01,1.00000000e-02
1.12000000e+00,7.11145412e-01,-4.19909665e-01,1.00000000e-02
1.13000000e+00,6.85830682e-01,-4.57383170e-01,1.00000000e-02
1.14000000e+00,6.58575822e-01,-4.93310315e-01,1.00000000e-02
1.15000000e+00,6.29484617e-01,-5.27602232e-01,1.00000000e-02
1.16000000e+00,5.98663602e-01,-5.60177639e-01,1.00000000e-02
1.17000000e+00,5.66221401e-01,-5.90962658e-01,1.00000000e-02
1.18000000e+00,5.32268124e-01,-6.19890562e-01,1.00000000e-02
1.19000000e+00,4.96914841e-01,-6.46901473e-01,1.00000000e-02
1.20000000e+00,4.60273128e-01,-6.71942014e-01,1.00000000e-02
1.21000000e+00,4.22454694e-01,-6.94964942e-01,1.00000000e-02
1.22000000e+00,3.83571087e-01,-7.15928756e-01,1.00000000e-02
1.23000000e+00,3.43733473e-01,-7.34797319e-01,1.00000000e-02
1.24000000e+00,3.03052494e-01,-7.51539479e-01,1.00000000e-02
1.25000000e+00,2.61638188e-01,-7.66128716e-01,1.00000000e-02
1.26000000e+00,2.19599974e-01,-7.78542827e-01,1.00000000e-02
1.27000000e+00,1.77046688e-01,-7.88763643e-01,1.00000000e-02
1.28000000e+00,1.34086667e-01,-7.96776796e-01,1.00000000e-02
1.29000000e+00,9.08278611e-02,-8.02571546e-01,1.00000000e-02
1.30000000e+00,4.73779779e-02,-8.06140658e-01,1.00000000e-02
1.31000000e+00,3.84463538e-03,-8.07480342e-01,1.00000000e-02
1.32000000e+00,-3.96644797e-02,-8.06590254e-01,1.00000000e-02
1.33000000e+00,-8.30414616e-02,-8.03473559e-01,1.00000000e-02
1.34000000e+00,-1.26178054e-01,-7.98137051e-01,1.00000000e-02
1.35000000e+00,-1.68965545e-01,-7.90591329e-01,1.00000000e-02
1.36000000e+00,-2.11294707e-01,-7.80851023e-01,1.00000000e-02
1.37000000e+00,-2.53055772e-01,-7.68935061e-01,1.00000000e-02
1.38000000e+00,-2.94138476e-01,-7.54866972e-01,1.00000000e-02
1.39000000e+00,-3.34432155e-01,-7.38675221e-01,1.00000000e-02
1.40000000e+00,-3.73825914e-01,-7.20393544e-01,1.00000000e-02
1.41000000e+00,-4.12208868e-01,-7.00061306e-01,1.00000000e-02
1.42000000e+00,-4.49470452e-01,-6.77723836e-01,1.00000000e-02
1.43000000e+00,-4.85500808e-01,-6.53432743e-01,1.00000000e-02
1.44000000e+00,-5.20191246e-01,-6.27246206e-01,1.00000000e-02
1.45000000e+00,-5.53434769e-01,-5.99229207e-01,1.00000000e-02
1.46000000e+00,-5.85126660e-01,-5.69453708e-01,1.00000000e-02
1.47000000e+00,-6.15165122e-01,-5.37998759e-01,1.00000000e-02
1.48000000e+00,-6.43451964e-01,-5.04950520e-01,1.00000000e-02
1.49000000e+00,-6.69893307e-01,-4.70402196e-01,1.00000000e-02
1.50000000e+00,-6.94400318e-01,-4.34453878e-01,1.00000000e-02
1.51000000e+00,-7.16889936e-01,-3.97212278e-01,1.00000000e-02
1.52000000e+00,-7.37285579e-01,-3.58790363e-01,1.00000000e-02
1.53000000e+00,-7.55517833e-01,-3.19306897e-01,1.00000000e-02
1.54000000e+00,-7.71525074e-01,-2.78885873e-01,1.00000000e-02
1.55000000e+00,-7.85254037e-01,-2.37655867e-01,1.00000000e-02
1.56000000e+00,-7.96660304e-01,-1.95749311e-01,1.00000000e-02
1.57000000e+00,-8.05708699e-01,-1.53301695e-01,1.00000000e-02
1.58000000e+00,-8.12373585e-01,-1.10450722e-01,1.00000000e-02
1.59000000e+00,-8.16639044e-01,-6.73354226e-02,1.00000000e-02
1.60000000e+00,-8.18498957e-01,-2.40952572e-02,1.00000000e-02
1.61000000e+00,-8.17956956e-01,1.91307888e-02,1.00000000e-02
1.62000000e+00,-8.15026269e-01,6.22050888e-02,1.00000000e-02
1.63000000e+00,-8.09729454e-01,1.04992226e-01,1.00000000e-02
1.64000000e+00,-8.02098034e-01,1.47359794e-01,1.00000000e-02
1.65000000e+00,-7.92172039e-01,1.89179133e-01,1.00000000e-02
1.66000000e+00,-7.79999469e-01,2.30325987e-01,1.00000000e-02
1.67000000e+00,-7.65635691e-01,2.70681080e-01,1.00000000e-02
1.68000000e+00,-7.49142788e-01,3.10130593e-01,1.00000000e-02
1.69000000e+00,-7.30588871e-01,3.48566544e-01,1.00000000e-02
1.70000000e+00,-7.10047373e-01,3.85887073e-01,1.00000000e-02
1.71000000e+00,-6.87596344e-01,4.21996622e-01,1.00000000e-02
1.72000000e+00,-6.63317751e-01,4.56806022e-01,1.00000000e-02
1.73000000e+00,-6.37296807e-01,4.90232493e-01,1.00000000e-02
1.74000000e+00,-6.09621338e-01,5.22199557e-01,1.00000000e-02
1.75000000e+00,-5.80381197e-01,5.52636886e-01,1.00000000e-02
1.76000000e+00,-5.49667739e-01,5.81480074e-01,1.00000000e-02
1.77000000e+00,-5.17573349e-01,6.08670373e-01,1.00000000e-02
1.78000000e+00,-4.84191052e-01,6.34154381e-01,1.00000000e-02
1.79000000e+00,-4.49614185e-01,6.57883701e-01,1.00000000e-02
1.80000000e+00,-4.13936144e-01,6.79814589e-01,1.00000000e-02
1.81000000e+00,-3.77250207e-01,6.99907599e-01,1.00000000e-02
1.82000000e+00,-3.39649414e-01,7.18127228e-01,1.00000000e-02
1.83000000e+00,-3.01226530e-01,7.34441588e-01,1.00000000e-02
1.84000000e+00,-2.62074054e-01,7.48822097e-01,1.00000000e-02
1.85000000e+00,-2.22284289e-01,7.61243212e-01,1.00000000e-02
1.86000000e+00,-1.81949458e-01,7.71682199e-01,1.00000000e-02
1.87000000e+00,-1.41161854e-01,7.80118962e-01,1.00000000e-02
1.88000000e+00,-1.00014032e-01,7.86535916e-01,1.00000000e-02
1.89000000e+00,-5.85990055e-02,7.90917925e-01,1.00000000e-02
1.90000000e+00,-1.70104656e-02,7.93252303e-01,1.00000000e-02
1.91000000e+00,2.46570032e-02,7.93528869e-01,1.00000000e-02
1.92000000e+00,6.63077177e-02,7.91740080e-01,1.00000000e-02
1.93000000e+00,1.07844710e-01,7.87881204e-01,1.00000000e-02
1.94000000e+00,1.49169573e-01,7.81950573e-01,1.00000000e-02
1.95000000e+00,1.90182344e-01,7.73949873e-01,1.00000000e-02
1.96000000e+00,2.30781438e-01,7.63884489e-01,1.00000000e-02
1.97000000e+00,2.70863644e-01,7.51763894e-01,1.00000000e-02
1.98000000e+00,3.10324183e-01,7.37602058e-01,1.00000000e-02
1.99000000e+00,3.49056837e-01,7.21417890e-01,1.00000000e-02
2.00000000e+00,3.86954165e-01,7.03235683e-01,1.00000000e-02
2.01000000e+00,4.23907789e-01,6.83085559e-01,1.00000000e-02
2.02000000e+00,4.59808769e-01,6.61003898e-01,1.00000000e-02
2.03000000e+00,4.94548064e-01,6.37033731e-01,1.00000000e-02
2.04000000e+00,5.28017067e-01,6.11225102e-01,1.00000000e-02
2.05000000e+00,5.60108212e-01,5.83635355e-01,1.00000000e-02
2.06000000e+00,5.90715660e-01,5.54329362e-01,1.00000000e-02
2.07000000e+00,6.19736026e-01,5.23379661e-01,1.00000000e-02
2.08000000e+00,6.47069160e-01,4.90866498e-01,1.00000000e-02
2.09000000e+00,6.72618955e-01,4.56877773e-01,1.00000000e-02
2.10000000e+00,6.96294167e-01,4.21508861e-01,1.00000000e-02
2.11000000e+00,7.18009233e-01,3.84862335e-01,1.00000000e-02
2.12000000e+00,7.37685061e-01,3.47047564e-01,1.00000000e-02
2.13000000e+00,7.55249782e-01,3.08180203e-01,1.00000000e-02
2.14000000e+00,7.70639445e-01,2.68381575e-01,1.00000000e-02
2.15000000e+00,7.83798631e-01,2.27777960e-01,1.00000000e-02
2.16000000e+00,7.94680972e-01,1.86499797e-01,1.00000000e-02
2.17000000e+00,8.03249574e-01,1.44680815e-01,1.00000000e-02
2.18000000e+00,8.09477316e-01,1.02457119e-01,1.00000000e-02
2.19000000e+00,8.13347030e-01,5.99662321e-02,1.00000000e-02
2.20000000e+00,8.14851553e-01,1.73461352e-02,1.00000000e-02
2.21000000e+00,8.13993654e-01,-2.52656958e-02,1.00000000e-02
2.22000000e+00,8.10785834e-01,-6.77332215e-02,1.00000000e-02
2.23000000e+00,8.05250016e-01,-1.09922727e-01,1.00000000e-02
2.24000000e+00,7.97417121e-01,-1.51703647e-01,1.00000000e-02
2.25000000e+00,7.87326552e-01,-1.92949315e-01,1.00000000e-02
2.26000000e+00,7.75025603e-01,-2.33537626e-01,1.00000000e-02
2.27000000e+00,7.60568795e-01,-2.73351591e-01,1.00000000e-02
2.28000000e+00,7.44017175e-01,-3.12279799e-01,1.00000000e-02
2.29000000e+00,7.25437579e-01,-3.50216762e-01,1.00000000e-02
2.30000000e+00,7.04901887e-01,-3.87063154e-01,1.00000000e-02
2.31000000e+00,6.82486285e-01,-4.22725945e-01,1.00000000e-02
2.32000000e+00,6.58270544e-01,-4.57118432e-01,1.00000000e-02
2.33000000e+00,6.32337339e-01,-4.90160179e-01,1.00000000e-02
2.34000000e+00,6.04771609e-01,-5.21776869e-01,1.00000000e-02
2.35000000e+00,5.75659989e-01,-5.51900087e-01,1.00000000e-02
2.36000000e+00,5.45090292e-01,-5.80467040e-01,1.00000000e-02
2.37000000e+00,5.13151076e-01,-6.07420228e-01,1.00000000e-02
2.38000000e+00,4.79931288e-01,-6.32707076e-01,1.00000000e-02
2.39000000e+00,4.45519978e-01,-6.56279553e-01,1.00000000e-02
2.40000000e+00,4.10006108e-01,-6.78093772e-01,1.00000000e-02
2.41000000e+00,3.73478425e-01,-6.98109596e-01,1.00000000e-02
2.42000000e+00,3.36025417e-01,-7.16290263e-01,1.00000000e-02
2.43000000e+00,2.97735337e-01,-7.32602034e-01,1.00000000e-02
2.44000000e+00,2.58696294e-01,-7.47013872e-01,1.00000000e-02
2.45000000e+00,2.18996395e-01,-7.59497177e-01,1.00000000e-02
2.46000000e+00,1.78723940e-01,-7.70025565e-01,1.00000000e-02
2.47000000e+00,1.37967659e-01,-7.78574710e-01,1.00000000e-02
2.48000000e+00,9.68169713e-02,-7.85122255e-01,1.00000000e-02
2.49000000e+00,5.53622679e-02,-7.89647785e-01,1.00000000e-02
2.50000000e+00,1.36952045e-02,-7.92132879e-01,1.00000000e-02
2.51000000e+00,-2.80910150e-02,-7.92561232e-01,1.00000000e-02
2.52000000e+00,-6.99013668e-02,-7.90918854e-01,1.00000000e-02
2.53000000e+00,-1.11638764e-01,-7.87194335e-01,1.00000000e-02
2.54000000e+00,-1.53203856e-01,-7.81379187e-01,1.00000000e-02
2.55000000e+00,-1.94494869e-01,-7.73468239e-01,1.00000000e-02
2.56000000e+00,-2.35407527e-01,-7.63460095e-01,1.00000000e-02
2.57000000e+00,-2.75835027e-01,-7.51357641e-01,1.00000000e-02
2.58000000e+00,-3.15668105e-01,-7.37168580e-01,1.00000000e-02
2.59000000e+00,-3.54795198e-01,-7.20905996e-01,1.00000000e-02
2.60000000e+00,-3.93102691e-01,-7.02588932e-01,1.00000000e-02
2.61000000e+00,-4.30475274e-01,-6.82242955e-01,1.00000000e-02
2.62000000e+00,-4.66796398e-01,-6.59900702e-01,1.00000000e-02
2.63000000e+00,-5.01948836e-01,-6.35602389e-01,1.00000000e-02
2.64000000e+00,-5.35815335e-01,-6.09396254e-01,1.00000000e-02
2.65000000e+00,-5.68279369e-01,-5.81338937e-01,1.00000000e-02
2.66000000e+00,-5.99225966e-01,-5.51495754e-01,1.00000000e-02
2.67000000e+00,-6.28542603e-01,-5.19940880e-01,1.00000000e-02
2.68000000e+00,-6.56120157e-01,-4.86757393e-01,1.00000000e-02
2.69000000e+00,-6.81853879e-01,-4.52037204e-01,1.00000000e-02
2.70000000e+00,-7.05644388e-01,-4.15880837e-01,1.00000000e-02
2.71000000e+00,-7.27398646e-01,-3.78397073e-01,1.00000000e-02
2.72000000e+00,-7.47030905e-01,-3.39702452e-01,1.00000000e-02
2.73000000e+00,-7.64463586e-01,-2.99920635e-01,1.00000000e-02
2.74000000e+00,-7.79628082e-01,-2.59181649e-01,1.00000000e-02
2.75000000e+00,-7.92465461e-01,-2.17621005e-01,1.00000000e-02
2.76000000e+00,-8.02927040e-01,-1.75378732e-01,1.00000000e-02
2.77000000e+00,-8.10974834e-01,-1.32598329e-01,1.00000000e-02
2.78000000e+00,-8.16581849e-01,-8.94256688e-02,1.00000000e-02
2.79000000e+00,-8.19732229e-01,-4.60078643e-02,1.00000000e-02
2.80000000e+00,-8.20421244e-01,-2.49214456e-03,1.00000000e-02
2.81000000e+00,-8.18655122e-01,4.09752563e-02,1.00000000e-02
2.82000000e+00,-8.14450749e-01,8.42501597e-02,1.00000000e-02
2.83000000e+00,-8.07835215e-01,1.27191436e-01,1.00000000e-02
2.84000000e+00,-7.98845257e-01,1.69661908e-01,1.00000000e-02
2.85000000e+00,-7.87526590e-01,2.11529154e-01,1.00000000e-02
2.86000000e+00,-7.73933158e-01,2.52666188e-01,1.00000000e-02
2.87000000e+00,-7.58126328e-01,2.92952021e-01,1.00000000e-02
2.88000000e+00,-7.40174039e-01,3.32272084e-01,1.00000000e-02
2.89000000e+00,-7.20149936e-01,3.70518525e-01,1.00000000e-02
2.90000000e+00,-6.98132511e-01,4.07590374e-01,1.00000000e-02
2.91000000e+00,-6.74204260e-01,4.43393588e-01,1.00000000e-02
2.92000000e+00,-6.48450891e-01,4.77840978e-01,1.00000000e-02
2.93000000e+00,-6.20960582e-01,5.10852037e-01,1.00000000e-02
2.94000000e+00,-5.91823312e-01,5.42352676e-01,1.00000000e-02
2.95000000e+00,-5.61130271e-01,5.72274888e-01,1.00000000e-02
2.96000000e+00,-5.28973363e-01,6.00556349e-01,1.00000000e-02
2.97000000e+00,-4.95444796e-01,6.27139982e-01,1.00000000e-02
2.98000000e+00,-4.60636779e-01,6.51973487e-01,1.00000000e-02
2.99000000e+00,-4.24641301e-01,6.75008867e-01,1.00000000e-02
3.00000000e+00,-3.87550021e-01,6.96201954e-01,1.00000000e-02
3.01000000e+00,-3.49454238e-01,7.15511954e-01,1.00000000e-02
3.02000000e+00,-3.10444950e-01,7.32901028e-01,1.00000000e-02
3.03000000e+00,-2.70612991e-01,7.48333914e-01,1.00000000e-02
3.04000000e+00,-2.30049240e-01,7.61777606e-01,1.00000000e-02
3.05000000e+00,-1.88844880e-01,7.73201100e-01,1.00000000e-02
3.06000000e+00,-1.47091718e-01,7.82575215e-01,1.00000000e-02
3.07000000e+00,-1.04882530e-01,7.89872488e-01,1.00000000e-02
3.08000000e+00,-6.23114360e-02,7.95067168e-01,1.00000000e-02
3.09000000e+00,-1.94742765e-02,7.98135288e-01,1.00000000e-02
3.10000000e+00,2.35310065e-02,7.99054837e-01,1.00000000e-02
3.11000000e+00,6.66040169e-02,7.97806021e-01,1.00000000e-02
3.12000000e+00,1.09641583e-01,7.94371615e-01,1.00000000e-02
3.13000000e+00,1.52537487e-01,7.88737399e-01,1.00000000e-02
3.14000000e+00,1.95182263e-01,7.80892681e-01,1.00000000e-02
3.15000000e+00,2.37463069e-01,7.70830877e-01,1.00000000e-02
3.16000000e+00,2.79263659e-01,7.58550168e-01,1.00000000e-02
3.17000000e+00,3.20464456e-01,7.44054189e-01,1.00000000e-02
3.18000000e+00,3.60942746e-01,7.27352752e-01,1.00000000e-02
3.19000000e+00,4.00572993e-01,7.08462580e-01,1.00000000e-02
3.20000000e+00,4.39227288e-01,6.87408035e-01,1.00000000e-02
3.21000000e+00,4.76775923e-01,6.64221807e-01,1.00000000e-02
3.22000000e+00,5.13088108e-01,6.38945553e-01,1.00000000e-02
3.23000000e+00,5.48032798e-01,6.11630454e-01,1.00000000e-02
3.24000000e+00,5.81479646e-01,5.82337677e-01,1.00000000e-02
3.25000000e+00,6.13300054e-01,5.51138705e-01,1.00000000e-02
3.26000000e+00,6.43368296e-01,5.18115530e-01,1.00000000e-02
