time,u0,u1,tau
0.000000000000000000000000000000000000000000000000e+00,-2.500000000000000000000000000000000000000000000000e-01,1.000000000000000333066907387546962127089500427246e-01,1.000000000000000020816681711721685132943093776703e-02
1.000000000000000020816681711721685132943093776703e-02,-2.496698807938326214461710605974076315760612487793e-01,1.006256752999127451753125228606222663074731826782e-01,1.000000000000000020816681711721685132943093776703e-02
2.000000000000000041633363423443370265886187553406e-02,-2.493374814519173088278591876587597653269767761230e-01,1.012505126939462207769082624508882872760295867920e-01,1.000000000000000020816681711721685132943093776703e-02
2.999999999999999888977697537484345957636833190918e-02,-2.490028032810895353144076125317951664328575134277e-01,1.018745091280587877768937232758617028594017028809e-01,1.000000000000000020816681711721685132943093776703e-02
4.000000000000000083266726846886740531772375106812e-02,-2.486658476228887637571318691698252223432064056396e-01,1.024976615768677934426023057312704622745513916016e-01,1.000000000000000020816681711721685132943093776703e-02
5.000000000000000277555756156289135105907917022705e-02,-2.483266158531785283702930655636009760200977325439e-01,1.031199670441127341780074289090407546609640121460e-01,1.000000000000000020816681711721685132943093776703e-02
6.000000000000000471844785465691529680043458938599e-02,-2.479851093817599105850746354917646385729312896729e-01,1.037414225631133196658950623714190442115068435669e-01,1.000000000000000020816681711721685132943093776703e-02
7.000000000000000666133814775093924254179000854492e-02,-2.476413296519782980542601080742315389215946197510e-01,1.043620251972223883507595587616378907114267349243e-01,1.000000000000000020816681711721685132943093776703e-02
8.000000000000000166533453693773481063544750213623e-02,-2.472952781403237321189436670465511269867420196533e-01,1.049817720402737020179984028800390660762786865234e-01,1.000000000000000020816681711721685132943093776703e-02
8.999999999999999666933092612453037872910499572754e-02,-2.469469563560245661815173434661119244992733001709e-01,1.056006602170244113025887600088026374578475952148e-01,1.000000000000000020816681711721685132943093776703e-02
9.999999999999999167332731531132594682276248931885e-02,-2.465963658406347402962666137682390399277210235596e-01,1.062186868835921782494580156708252616226673126221e-01,1.000000000000000020816681711721685132943093776703e-02
1.099999999999999866773237044981215149164199829102e-01,-2.462435081676146997331500188010977581143379211426e-01,1.068358492278868865366092677504639141261577606201e-01,1.000000000000000020816681711721685132943093776703e-02
1.199999999999999816813200936849170830100774765015e-01,-2.458883849419059575147628038394032046198844909668e-01,1.074521444700368838498505397183180321007966995239e-01,1.000000000000000020816681711721685132943093776703e-02
1.299999999999999766853164828717126511037349700928e-01,-2.455309977994993009264845795769360847771167755127e-01,1.080675698628095759978862133721122518181800842285e-01,1.000000000000000020816681711721685132943093776703e-02
1.399999999999999855671006798729649744927883148193e-01,-2.451713484069968917999915447580860927700996398926e-01,1.086821226920264144011341045370500069111585617065e-01,1.000000000000000020816681711721685132943093776703e-02
1.499999999999999944488848768742172978818416595459e-01,-2.448094384611680662811039610460284166038036346436e-01,1.092958002769721798097535270244407001882791519165e-01,1.000000000000000020816681711721685132943093776703e-02
1.600000000000000033306690738754696212708950042725e-01,-2.444452696884992226600274989323224872350692749023e-01,1.099085999707984373507940745184896513819694519043e-01,1.000000000000000020816681711721685132943093776703e-02
1.700000000000000122124532708767219446599483489990e-01,-2.440788438447374364415054515120573341846466064453e-01,1.105205191609211351488895047623373102396726608276e-01,1.000000000000000020816681711721685132943093776703e-02
1.800000000000000210942374678779742680490016937256e-01,-2.437101627144282744996672818160732276737689971924e-01,1.111315552694122910093454947855207137763500213623e-01,1.000000000000000020816681711721685132943093776703e-02
1.900000000000000299760216648792265914380550384521e-01,-2.433392281104476417841198099267785437405109405518e-01,1.117417057533856561413188046572031453251838684082e-01,1.000000000000000020816681711721685132943093776703e-02
2.000000000000000388578058618804789148271083831787e-01,-2.429660418735276883328566555064753629267215728760e-01,1.123509681053762587765731950639747083187103271484e-01,1.000000000000000020816681711721685132943093776703e-02
2.100000000000000477395900588817312382161617279053e-01,-2.425906058717770541477420920273289084434509277344e-01,1.129593398537139109505389455989643465727567672729e-01,1.000000000000000020816681711721685132943093776703e-02
2.200000000000000566213742558829835616052150726318e-01,-2.422129220001953686658424658162402920424938201904e-01,1.135668185628904008899198174731282051652669906616e-01,1.000000000000000020816681711721685132943093776703e-02
2.300000000000000655031584528842358849942684173584e-01,-2.418329921801819770710295642857090570032596588135e-01,1.141734018339204959069377309788251295685768127441e-01,1.000000000000000020816681711721685132943093776703e-02
2.400000000000000743849426498854882083833217620850e-01,-2.414508183590392265127633208976476453244686126709e-01,1.147790873046965198778224248599144630134105682373e-01,1.000000000000000020816681711721685132943093776703e-02
2.500000000000000555111512312578270211815834045410e-01,-2.410664025094700624318733161999261938035488128662e-01,1.153838726503366024500607522895734291523694992065e-01,1.000000000000000020816681711721685132943093776703e-02
2.600000000000000643929354282590793445706367492676e-01,-2.406797466290703790825489249982638284564018249512e-01,1.159877555835264195671641118678962811827659606934e-01,1.000000000000000020816681711721685132943093776703e-02
2.700000000000000732747196252603316679596900939941e-01,-2.402908527398157079169038752297637984156608581543e-01,1.165907338548543975553783980103617068380117416382e-01,1.000000000000000020816681711721685132943093776703e-02
2.800000000000000821565038222615839913487434387207e-01,-2.398997228875427989436275311163626611232757568359e-01,1.171928052531403807723364707271684892475605010986e-01,1.000000000000000020816681711721685132943093776703e-02
2.900000000000000910382880192628363147377967834473e-01,-2.395063591414258730161179755668854340910911560059e-01,1.177939676057575546508360275765880942344665527344e-01,1.000000000000000020816681711721685132943093776703e-02
3.000000000000000999200722162640886381268501281738e-01,-2.391107635934476838279749699722742661833763122559e-01,1.183942187789477351600453403079882264137268066406e-01,1.000000000000000020816681711721685132943093776703e-02
3.100000000000001088018564132653409615159034729004e-01,-2.387129383578653896158527913939906284213066101074e-01,1.189935566781298581506831624210462905466556549072e-01,1.000000000000000020816681711721685132943093776703e-02
3.200000000000001176836406102665932849049568176270e-01,-2.383128855706715398810047190636396408081054687500e-01,1.195919792482016408285971920122392475605010986328e-01,1.000000000000000020816681711721685132943093776703e-02
3.300000000000001265654248072678456082940101623535e-01,-2.379106073890498995737630139046814292669296264648e-01,1.201894844738343320900142430218693334609270095825e-01,1.000000000000000020816681711721685132943093776703e-02
3.400000000000001354472090042690979316830635070801e-01,-2.375061059908265548301642411388456821441650390625e-01,1.207860703797605517184621248816256411373615264893e-01,1.000000000000000020816681711721685132943093776703e-02
3.500000000000001443289932012703502550721168518066e-01,-2.370993835739160227049637796881143003702163696289e-01,1.213817350310551629322119993048545438796281814575e-01,1.000000000000000020816681711721685132943093776703e-02
3.600000000000001532107773982716025784611701965332e-01,-2.366904423557626702123712902903207577764987945557e-01,1.219764765334089978709997126316011417657136917114e-01,1.000000000000000020816681711721685132943093776703e-02
3.700000000000001620925615952728549018502235412598e-01,-2.362792845727774149189315266994526609778404235840e-01,1.225702930333955470443285662440757732838392257690e-01,1.000000000000000020816681711721685132943093776703e-02
3.800000000000001709743457922741072252392768859863e-01,-2.358659124797698736220041837441385723650455474854e-01,1.231631827187305294746266781658050604164600372314e-01,1.000000000000000020816681711721685132943093776703e-02
3.900000000000001798561299892753595486283302307129e-01,-2.354503283493758480915403197286650538444519042969e-01,1.237551438185241214906540108131594024598598480225e-01,1.000000000000000020816681711721685132943093776703e-02
4.000000000000001887379141862766118720173835754395e-01,-2.350325344714804254309115094656590372323989868164e-01,1.243461746035260800935517977450217586010694503784e-01,1.000000000000000020816681711721685132943093776703e-02
4.100000000000001976196983832778641954064369201660e-01,-2.346125331526366653012161123115220107138156890869e-01,1.249362733863634417064147896780923474580049514771e-01,1.000000000000000020816681711721685132943093776703e-02
4.200000000000002065014825802791165187954902648926e-01,-2.341903267154799295202138864624430425465106964111e-01,1.255254385217709212074765900979400612413883209229e-01,1.000000000000000020816681711721685132943093776703e-02
4.300000000000002153832667772803688421845436096191e-01,-2.337659174981379928137670276555581949651241302490e-01,1.261136684068139279801812335790600627660751342773e-01,1.000000000000000020816681711721685132943093776703e-02
4.400000000000002242650509742816211655735969543457e-01,-2.333393078536369069642120166463428176939487457275e-01,1.267009614811040463244751208549132570624351501465e-01,1.000000000000000020816681711721685132943093776703e-02
4.500000000000002331468351712828734889626502990723e-01,-2.329105001493028404002672004935448057949542999268e-01,1.272873162270070912516217731536016799509525299072e-01,1.000000000000000020816681711721685132943093776703e-02
4.600000000000002420286193682841258123517036437988e-01,-2.324794967661598932284761076516588218510150909424e-01,1.278727311698436008846613276546122506260871887207e-01,1.000000000000000020816681711721685132943093776703e-02
4.700000000000002509104035652853781357407569885254e-01,-2.320463000983238599506108812420279718935489654541e-01,1.284572048780817377089391584377153776586055755615e-01,1.000000000000000020816681711721685132943093776703e-02
4.800000000000002597921877622866304591298103332520e-01,-2.316109125523921341560651399049675092101097106934e-01,1.290407359635226125504914307384751737117767333984e-01,1.000000000000000020816681711721685132943093776703e-02
4.900000000000002686739719592878827825188636779785e-01,-2.311733365468299494782655756353051401674747467041e-01,1.296233230814778369932582791079767048358917236328e-01,1.000000000000000020816681711721685132943093776703e-02
5.000000000000002220446049250313080847263336181641e-01,-2.307335745113526237481949010543758049607276916504e-01,1.302049649309394430130026876213378272950649261475e-01,1.000000000000000020816681711721685132943093776703e-02
5.100000000000002309263891220325604081153869628906e-01,-2.302916288863044724788409212123951874673366546631e-01,1.307856602547420865612082252482650801539421081543e-01,1.000000000000000020816681711721685132943093776703e-02
5.200000000000002398081733190338127315044403076172e-01,-2.298475021220338088134838017140282317996025085449e-01,1.313654078397173130543507113543455488979816436768e-01,1.000000000000000020816681711721685132943093776703e-02
5.300000000000002486899575160350650548934936523438e-01,-2.294011966782646683160606926321634091436862945557e-01,1.319442065168401345687243519932962954044342041016e-01,1.000000000000000020816681711721685132943093776703e-02
5.400000000000002575717417130363173782825469970703e-01,-2.289527150234650643145783988074981607496738433838e-01,1.325220551613677244517930375877767801284790039062e-01,1.000000000000000020816681711721685132943093776703e-02
5.500000000000002664535259100375697016716003417969e-01,-2.285020596342117460419984809050220064818859100342e-01,1.330989526929701460833399551120237447321414947510e-01,1.000000000000000020816681711721685132943093776703e-02
5.600000000000002753353101070388220250606536865234e-01,-2.280492329945518481526534060321864672005176544189e-01,1.336748980758531990531423616630490869283676147461e-01,1.000000000000000020816681711721685132943093776703e-02
5.700000000000002842170943040400743484497070312500e-01,-2.275942375953612928363156697741942480206489562988e-01,1.342498903188732439772934412758331745862960815430e-01,1.000000000000000020816681711721685132943093776703e-02
5.800000000000002930988785010413266718387603759766e-01,-2.271370759336999445299198896464076824486255645752e-01,1.348239284756441169754737074981676414608955383301e-01,1.000000000000000020816681711721685132943093776703e-02
5.900000000000003019806626980425789952278137207031e-01,-2.266777505121638780494208731397520750761032104492e-01,1.353970116446358284978401798070990480482578277588e-01,1.000000000000000020816681711721685132943093776703e-02
6.000000000000003108624468950438313186168670654297e-01,-2.262162638382345658527583509567193686962127685547e-01,1.359691389692654350795919526717625558376312255859e-01,1.000000000000000020816681711721685132943093776703e-02
6.100000000000003197442310920450836420059204101562e-01,-2.257526184236251509673820692114531993865966796875e-01,1.365403096379795566672754603132489137351512908936e-01,1.000000000000000020816681711721685132943093776703e-02
6.200000000000003286260152890463359653949737548828e-01,-2.252868167836239721157909343673964031040668487549e-01,1.371105228843290113616149028530344367027282714844e-01,1.000000000000000020816681711721685132943093776703e-02
6.300000000000003375077994860475882887840270996094e-01,-2.248188614364352300167837483968469314277172088623e-01,1.376797779870350402209311369006172753870487213135e-01,1.000000000000000020816681711721685132943093776703e-02
6.400000000000003463895836830488406121730804443359e-01,-2.243487549025170724181776904515572823584079742432e-01,1.382480742700475107032076493851491250097751617432e-01,1.000000000000000020816681711721685132943093776703e-02
6.500000000000003552713678800500929355621337890625e-01,-2.238764997039170145942676981576369144022464752197e-01,1.388154111025949044577743052286677993834018707275e-01,1.000000000000000020816681711721685132943093776703e-02
6.600000000000003641531520770513452589511871337891e-01,-2.234020983636048340859048266793251968920230865479e-01,1.393817878992258951775795594585360959172248840332e-01,1.000000000000000020816681711721685132943093776703e-02
6.700000000000003730349362740525975823402404785156e-01,-2.229255534048029674387692011805484071373939514160e-01,1.399472041198429050901097525638760998845100402832e-01,1.000000000000000020816681711721685132943093776703e-02
6.800000000000003819167204710538499057292938232422e-01,-2.224468673503146864955937189733958803117275238037e-01,1.405116592697271127310187921466422267258167266846e-01,1.000000000000000020816681711721685132943093776703e-02
6.900000000000003907985046680551022291183471679688e-01,-2.219660427218497211754311138065531849861145019531e-01,1.410751528995553283341024553010356612503528594971e-01,1.000000000000000020816681711721685132943093776703e-02
7.000000000000003996802888650563545525074005126953e-01,-2.214830820393478560959010792430490255355834960938e-01,1.416376846054084315262855398032115772366523742676e-01,1.000000000000000020816681711721685132943093776703e-02
7.100000000000004085620730620576068758964538574219e-01,-2.209979878203003067493881417249212972819805145264e-01,1.421992540287714545943487109980196692049503326416e-01,1.000000000000000020816681711721685132943093776703e-02
7.200000000000004174438572590588591992855072021484e-01,-2.205107625790688752331902833248022943735122680664e-01,1.427598608565252835678194287538644857704639434814e-01,1.000000000000000020816681711721685132943093776703e-02
7.300000000000004263256414560601115226745605468750e-01,-2.200214088262033296228281642470392398536205291748e-01,1.433195048209299771180269544856855645775794982910e-01,1.000000000000000020816681711721685132943093776703e-02
7.400000000000004352074256530613638460636138916016e-01,-2.195299290677566184104563262735609896481037139893e-01,1.438781856995995644954433601014898158609867095947e-01,1.000000000000000020816681711721685132943093776703e-02
7.500000000000004440892098500626161694526672363281e-01,-2.190363258045983363420106115881935693323612213135e-01,1.444359033154685167943398482748307287693023681641e-01,1.000000000000000020816681711721685132943093776703e-02
7.600000000000004529709940470638684928417205810547e-01,-2.185406015317263861419405657215975224971771240234e-01,1.449926575367496417445778433830128051340579986572e-01,1.000000000000000020816681711721685132943093776703e-02
7.700000000000004618527782440651208162307739257812e-01,-2.180427587375768638811024402457405813038349151611e-01,1.455484482768835130528373156266752630472183227539e-01,1.000000000000000020816681711721685132943093776703e-02
7.800000000000004707345624410663731396198272705078e-01,-2.175427999033322790101152577335597015917301177979e-01,1.461032754944794065377067227018414996564388275146e-01,1.000000000000000020816681711721685132943093776703e-02
7.900000000000004796163466380676254630088806152344e-01,-2.170407275022283033472092483862070366740226745605e-01,1.466571391932477430586345690244343131780624389648e-01,1.000000000000000020816681711721685132943093776703e-02
8.000000000000004884981308350688777863979339599609e-01,-2.165365439988588547315373489254852756857872009277e-01,1.472100394219238717052888887337758205831050872803e-01,1.000000000000000020816681711721685132943093776703e-02
8.100000000000004973799150320701301097869873046875e-01,-2.160302518484798206532815356695209629833698272705e-01,1.477619762741834430475051931352936662733554840088e-01,1.000000000000000020816681711721685132943093776703e-02
8.200000000000005062616992290713824331760406494141e-01,-2.155218534963114496161296074205893091857433319092e-01,1.483129498885490671344911106643849052488803863525e-01,1.000000000000000020816681711721685132943093776703e-02
8.300000000000005151434834260726347565650939941406e-01,-2.150113513768392992098199556494364514946937561035e-01,1.488629604482885060434682600316591560840606689453e-01,1.000000000000000020816681711721685132943093776703e-02
8.400000000000005240252676230738870799541473388672e-01,-2.144987479131141017152373251519748009741306304932e-01,1.494120081813041511775708158893394283950328826904e-01,1.000000000000000020816681711721685132943093776703e-02
8.500000000000005329070518200751394033432006835938e-01,-2.139840455160503529530302557759569026529788970947e-01,1.499600933600139518464544607923016883432865142822e-01,1.000000000000000020816681711721685132943093776703e-02
8.600000000000005417888360170763917267322540283203e-01,-2.134672465837238741759307458778494037687778472900e-01,1.505072163012236841073132609380991198122501373291e-01,1.000000000000000020816681711721685132943093776703e-02
8.700000000000005506706202140776440501213073730469e-01,-2.129483535006682914936249062520801089704036712646e-01,1.510533773659906153774556969437981024384498596191e-01,1.000000000000000020816681711721685132943093776703e-02
8.800000000000005595524044110788963735103607177734e-01,-2.124273686371705716080526826772256754338741302490e-01,1.515985769594783982849861558861448429524898529053e-01,1.000000000000000020816681711721685132943093776703e-02
8.900000000000005684341886080801486968994140625000e-01,-2.119042943485656693702878783369669690728187561035e-01,1.521428155308034158021968096363707445561885833740e-01,1.000000000000000020816681711721685132943093776703e-02
