time,u0,u1,tau
0.000000000000000000000000000000000000000000000000e+00,2.500000000000000000000000000000000000000000000000e-01,5.000000000000004440892098500626161694526672363281e-02,1.000000000000000020816681711721685132943093776703e-02
1.000000000000000020816681711721685132943093776703e-02,2.501500019722677214950579127616947516798973083496e-01,4.945032190741020794444438024584087543189525604248e-02,1.000000000000000020816681711721685132943093776703e-02
2.000000000000000041633363423443370265886187553406e-02,2.502985779390847764780403394979657605290412902832e-01,4.890029128273883085586959396096062846481800079346e-02,1.000000000000000020816681711721685132943093776703e-02
2.999999999999999888977697537484345957636833190918e-02,2.504457216361021809625242440233705565333366394043e-01,4.834990787377481391562383805649005807936191558838e-02,1.000000000000000020816681711721685132943093776703e-02
4.000000000000000083266726846886740531772375106812e-02,2.505914267927181748873977085168007761240005493164e-01,4.779917147506691083025387456473254133015871047974e-02,1.000000000000000020816681711721685132943093776703e-02
5.000000000000000277555756156289135105907917022705e-02,2.507356871325792102567220354103483259677886962891e-01,4.724808192796926126222345487803977448493242263794e-02,1.000000000000000020816681711721685132943093776703e-02
6.000000000000000471844785465691529680043458938599e-02,2.508784963740821050137697056925389915704727172852e-01,4.669663912068273969868670292271417565643787384033e-02,1.000000000000000020816681711721685132943093776703e-02
7.000000000000000666133814775093924254179000854492e-02,2.510198482308771961157844998524524271488189697266e-01,4.614484298829207853387401883082929998636245727539e-02,1.000000000000000020816681711721685132943093776703e-02
8.000000000000000166533453693773481063544750213623e-02,2.511597364123729358986736315273446962237358093262e-01,4.559269351279876536509050310996826738119125366211e-02,1.000000000000000020816681711721685132943093776703e-02
8.999999999999999666933092612453037872910499572754e-02,2.512981546242411545755146562441950663924217224121e-01,4.504019072314965205228176614582480397075414657593e-02,1.000000000000000020816681711721685132943093776703e-02
9.999999999999999167332731531132594682276248931885e-02,2.514350965689235439803894678334472700953483581543e-01,4.448733469526125472448541131598176434636116027832e-02,1.000000000000000020816681711721685132943093776703e-02
1.099999999999999866773237044981215149164199829102e-01,2.515705559461391405129404574836371466517448425293e-01,4.393412555203969616091086436426849104464054107666e-02,1.000000000000000020816681711721685132943093776703e-02
1.199999999999999816813200936849170830100774765015e-01,2.517045264533925852390439104055985808372497558594e-01,4.338056346339628360775364512846863362938165664673e-02,1.000000000000000020816681711721685132943093776703e-02
1.299999999999999766853164828717126511037349700928e-01,2.518370017864834387033567963953828439116477966309e-01,4.282664864625867345848675427077978383749723434448e-02,1.000000000000000020816681711721685132943093776703e-02
1.399999999999999855671006798729649744927883148193e-01,2.519679756400162173868295667489292100071907043457e-01,4.227238136457760891984136719656817149370908737183e-02,1.000000000000000020816681711721685132943093776703e-02
1.499999999999999944488848768742172978818416595459e-01,2.520974417079113183426386513019679114222526550293e-01,4.171776192932917515232560390359140001237392425537e-02,1.000000000000000020816681711721685132943093776703e-02
1.600000000000000033306690738754696212708950042725e-01,2.522253936839167209882361930795013904571533203125e-01,4.116279069851254412970575913277571089565753936768e-02,1.000000000000000020816681711721685132943093776703e-02
1.700000000000000122124532708767219446599483489990e-01,2.523518252621203550312145580392098054289817810059e-01,4.060746807714323003413170454223291017115116119385e-02,1.000000000000000020816681711721685132943093776703e-02
1.800000000000000210942374678779742680490016937256e-01,2.524767301374630790178343886509537696838378906250e-01,4.005179451724174416460400038886291440576314926147e-02,1.000000000000000020816681711721685132943093776703e-02
1.900000000000000299760216648792265914380550384521e-01,2.526001020062524915488211263436824083328247070312e-01,3.949577051781769099214614016091218218207359313965e-02,1.000000000000000020816681711721685132943093776703e-02
2.000000000000000388578058618804789148271083831787e-01,2.527219345666771865843713840149575844407081604004e-01,3.893939662484921515606117736751912161707878112793e-02,1.000000000000000020816681711721685132943093776703e-02
2.100000000000000477395900588817312382161617279053e-01,2.528422215193215083495203998609213158488273620605e-01,3.838267343125786879021177355753025040030479431152e-02,1.000000000000000020816681711721685132943093776703e-02
2.200000000000000566213742558829835616052150726318e-01,2.529609565676809168621730350423604249954223632812e-01,3.782560157687871876808216597964928951114416122437e-02,1.000000000000000020816681711721685132943093776703e-02
2.300000000000000655031584528842358849942684173584e-01,2.530781334186776865280421588977333158254623413086e-01,3.726818174842585346118184475017187651246786117554e-02,1.000000000000000020816681711721685132943093776703e-02
2.400000000000000743849426498854882083833217620850e-01,2.531937457831770488247968842188129201531410217285e-01,3.671041467945308084397382231145456898957490921021e-02,1.000000000000000020816681711721685132943093776703e-02
2.500000000000000555111512312578270211815834045410e-01,2.533077873765036680531181900732917711138725280762e-01,3.615230115030993590652386160400055814534425735474e-02,1.000000000000000020816681711721685132943093776703e-02
2.600000000000000643929354282590793445706367492676e-01,2.534202519189583946435107009165221825242042541504e-01,3.559384198809290023035600825096480548381805419922e-02,1.000000000000000020816681711721685132943093776703e-02
2.700000000000000732747196252603316679596900939941e-01,2.535311331363353515300218532502185553312301635742e-01,3.503503806659179209415100331170833669602870941162e-02,1.000000000000000020816681711721685132943093776703e-02
2.800000000000000821565038222615839913487434387207e-01,2.536404247604390205239610622811596840620040893555e-01,3.447589030623138955933271176945709157735109329224e-02,1.000000000000000020816681711721685132943093776703e-02
2.900000000000000910382880192628363147377967834473e-01,2.537481205296015507322238136111991479992866516113e-01,3.391639967400815469655839251572615467011928558350e-02,1.000000000000000020816681711721685132943093776703e-02
3.000000000000000999200722162640886381268501281738e-01,2.538542141892003445313719112164108082652091979980e-01,3.335656718342213528094575281102152075618505477905e-02,1.000000000000000020816681711721685132943093776703e-02
3.100000000000001088018564132653409615159034729004e-01,2.539586994921752549636551066214451566338539123535e-01,3.279639389440393987262822861339373048394918441772e-02,1.000000000000000020816681711721685132943093776703e-02
3.200000000000001176836406102665932849049568176270e-01,2.540615701995462272222425781365018337965011596680e-01,3.223588091323682791600191421821364201605319976807e-02,1.000000000000000020816681711721685132943093776703e-02
3.300000000000001265654248072678456082940101623535e-01,2.541628200809304405360933287738589569926261901855e-01,3.167502939247385240761900604411493986845016479492e-02,1.000000000000000020816681711721685132943093776703e-02
3.400000000000001354472090042690979316830635070801e-01,2.542624429150596720994315091957105323672294616699e-01,3.111384053085005513272776056510338094085454940796e-02,1.000000000000000020816681711721685132943093776703e-02
3.500000000000001443289932012703502550721168518066e-01,2.543604324902970503785581968259066343307495117188e-01,3.055231557318970059267115857437602244317531585693e-02,1.000000000000000020816681711721685132943093776703e-02
3.600000000000001532107773982716025784611701965332e-01,2.544567826051540859744193312508286908268928527832e-01,2.999045581030850352033390038286597700789570808411e-02,1.000000000000000020816681711721685132943093776703e-02
3.700000000000001620925615952728549018502235412598e-01,2.545514870688069253290564120106864720582962036133e-01,2.942826257891086386142553976696945028379559516907e-02,1.000000000000000020816681711721685132943093776703e-02
3.800000000000001709743457922741072252392768859863e-01,2.546445397016124934097547338751610368490219116211e-01,2.886573726148207105768328517569898394867777824402e-02,1.000000000000000020816681711721685132943093776703e-02
3.900000000000001798561299892753595486283302307129e-01,2.547359343356241367928305407986044883728027343750e-01,2.830288128617546028475970842919196002185344696045e-02,1.000000000000000020816681711721685132943093776703e-02
4.000000000000001887379141862766118720173835754395e-01,2.548256648151067116359058672969695180654525756836e-01,2.773969612669452758368926481580274412408471107483e-02,1.000000000000000020816681711721685132943093776703e-02
4.100000000000001976196983832778641954064369201660e-01,2.549137249970512830721247610199498012661933898926e-01,2.717618330216996572201715309802239062264561653137e-02,1.000000000000000020816681711721685132943093776703e-02
4.200000000000002065014825802791165187954902648926e-01,2.550001087516891584705547302291961386799812316895e-01,2.661234437703160690680270761276915436610579490662e-02,1.000000000000000020816681711721685132943093776703e-02
4.300000000000002153832667772803688421845436096191e-01,2.550848099630051990516221849247813224792480468750e-01,2.604818096087527928839122637327818665653467178345e-02,1.000000000000000020816681711721685132943093776703e-02
4.400000000000002242650509742816211655735969543457e-01,2.551678225292504098575818716199137270450592041016e-01,2.548369470832454602993166759006271604448556900024e-02,1.000000000000000020816681711721685132943093776703e-02
4.500000000000002331468351712828734889626502990723e-01,2.552491403634538080780203017638996243476867675781e-01,2.491888731888732347319326265733252512291073799133e-02,1.000000000000000020816681711721685132943093776703e-02
4.600000000000002420286193682841258123517036437988e-01,2.553287573939334031969394800398731604218482971191e-01,2.435376053680735758399933388318459037691354751587e-02,1.000000000000000020816681711721685132943093776703e-02
4.700000000000002509104035652853781357407569885254e-01,2.554066675648062889614209325372939929366111755371e-01,2.378831615091057255506612477802264038473367691040e-02,1.000000000000000020816681711721685132943093776703e-02
4.800000000000002597921877622866304591298103332520e-01,2.554828648364977361495675722835585474967956542969e-01,2.322255599444624646343626750422117765992879867554e-02,1.000000000000000020816681711721685132943093776703e-02
4.900000000000002686739719592878827825188636779785e-01,2.555573431862491751154209396190708503127098083496e-01,2.265648194492303479918859920871909707784652709961e-02,1.000000000000000020816681711721685132943093776703e-02
5.000000000000002220446049250313080847263336181641e-01,2.556300966086251791331562799314269796013832092285e-01,2.209009592393983145708347137770033441483974456787e-02,1.000000000000000020816681711721685132943093776703e-02
5.100000000000002309263891220325604081153869628906e-01,2.557011191160192820071017649752320721745491027832e-01,2.152339989701144290501488853806222323328256607056e-02,1.000000000000000020816681711721685132943093776703e-02
5.200000000000002398081733190338127315044403076172e-01,2.557704047391585189252793952618958428502082824707e-01,2.095639587338907899871642825928574893623590469360e-02,1.000000000000000020816681711721685132943093776703e-02
5.300000000000002486899575160350650548934936523438e-01,2.558379475276065240230138897459255531430244445801e-01,2.038908590587567778995570222377864411100745201111e-02,1.000000000000000020816681711721685132943093776703e-02
5.400000000000002575717417130363173782825469970703e-01,2.559037415502656287458194128703325986862182617188e-01,1.982147209063600534761917515425011515617370605469e-02,1.000000000000000020816681711721685132943093776703e-02
5.500000000000002664535259100375697016716003417969e-01,2.559677808958771838554469013615744188427925109863e-01,1.925355656700159304173247676317259902134537696838e-02,1.000000000000000020816681711721685132943093776703e-02
5.600000000000002753353101070388220250606536865234e-01,2.560300596735204381459993783209938555955886840820e-01,1.868534151727046718760583132734609534963965415955e-02,1.000000000000000020816681711721685132943093776703e-02
5.700000000000002842170943040400743484497070312500e-01,2.560905720131100848924177171284100040793418884277e-01,1.811682916650167451955155684117926284670829772949e-02,1.000000000000000020816681711721685132943093776703e-02
5.800000000000002930988785010413266718387603759766e-01,2.561493120658918098975220800639363005757331848145e-01,1.754802178230462431085534547037241281941533088684e-02,1.000000000000000020816681711721685132943093776703e-02
5.900000000000003019806626980425789952278137207031e-01,2.562062740049365072714238067419501021504402160645e-01,1.697892167462321938442570967708888929337263107300e-02,1.000000000000000020816681711721685132943093776703e-02
6.000000000000003108624468950438313186168670654297e-01,2.562614520256324968094929772632895037531852722168e-01,1.640953119551481070859111355275672394782304763794e-02,1.000000000000000020816681711721685132943093776703e-02
6.100000000000003197442310920450836420059204101562e-01,2.563148403461759095023353438591584563255310058594e-01,1.583985273892393741412831786874448880553245544434e-02,1.000000000000000020816681711721685132943093776703e-02
6.200000000000003286260152890463359653949737548828e-01,2.563664332080592966889298622845672070980072021484e-01,1.526988874045088866171493435786032932810485363007e-02,1.000000000000000020816681711721685132943093776703e-02
6.300000000000003375077994860475882887840270996094e-01,2.564162248765581852971706666721729561686515808105e-01,1.469964167711508909452966520348127232864499092102e-02,1.000000000000000020816681711721685132943093776703e-02
6.400000000000003463895836830488406121730804443359e-01,2.564642096412154681495110253308666869997978210449e-01,1.412911406711328879404199199143477017059922218323e-02,1.000000000000000020816681711721685132943093776703e-02
6.500000000000003552713678800500929355621337890625e-01,2.565103818163240179117678962938953191041946411133e-01,1.355830846957259416818430963758146390318870544434e-02,1.000000000000000020816681711721685132943093776703e-02
6.600000000000003641531520770513452589511871337891e-01,2.565547357414068030401210762647679075598716735840e-01,1.298722748429832762884217345344950444996356964111e-02,1.000000000000000020816681711721685132943093776703e-02
6.700000000000003730349362740525975823402404785156e-01,2.565972657816947832820630992500809952616691589355e-01,1.241587375151672820172699118757009273394942283630e-02,1.000000000000000020816681711721685132943093776703e-02
6.800000000000003819167204710538499057292938232422e-01,2.566379663286027512647535786527441814541816711426e-01,1.184424995161251215058939578739227727055549621582e-02,1.000000000000000020816681711721685132943093776703e-02
6.900000000000003907985046680551022291183471679688e-01,2.566768318002024540369632177316816523671150207520e-01,1.127235880486129361577329888177700922824442386627e-02,1.000000000000000020816681711721685132943093776703e-02
7.000000000000003996802888650563545525074005126953e-01,2.567138566416933831426661072327988222241401672363e-01,1.070020307115687914489843279852721025235950946808e-02,1.000000000000000020816681711721685132943093776703e-02
7.100000000000004085620730620576068758964538574219e-01,2.567490353258712332262803101912140846252441406250e-01,1.012778554973345172818266490821770275942981243134e-02,1.000000000000000020816681711721685132943093776703e-02
7.200000000000004174438572590588591992855072021484e-01,2.567823623535933075245907275530043989419937133789e-01,9.555109078882653012021464178360474761575460433960e-03,1.000000000000000020816681711721685132943093776703e-02
7.300000000000004263256414560601115226745605468750e-01,2.568138322542417584237739447416970506310462951660e-01,8.982176535665587976953183613204600987955927848816e-03,1.000000000000000020816681711721685132943093776703e-02
7.400000000000004352074256530613638460636138916016e-01,2.568434395861837193919541277864482253789901733398e-01,8.408990835619753814733634555977914715185761451721e-03,1.000000000000000020816681711721685132943093776703e-02
7.500000000000004440892098500626161694526672363281e-01,2.568711789372288278876510503323515877127647399902e-01,7.835554932460920760095568482483940897509455680847e-03,1.000000000000000020816681711721685132943093776703e-02
7.600000000000004529709940470638684928417205810547e-01,2.568970449250836951549104014702606946229934692383e-01,7.261871817779978754980874100510845892131328582764e-03,1.000000000000000020816681711721685132943093776703e-02
7.700000000000004618527782440651208162307739257812e-01,2.569210321978036559720237619330873712897300720215e-01,6.687944520734769894565463488333989516831934452057e-03,1.000000000000000020816681711721685132943093776703e-02
7.800000000000004707345624410663731396198272705078e-01,2.569431354342412432423259360803058370947837829590e-01,6.113776107736921400226393075172381941229104995728e-03,1.000000000000000020816681711721685132943093776703e-02
7.900000000000004796163466380676254630088806152344e-01,2.569633493444917760051282584754517301917076110840e-01,5.539369682133710344473787046126744826324284076691e-03,1.000000000000000020816681711721685132943093776703e-02
8.000000000000004884981308350688777863979339599609e-01,2.569816686703356722887292562518268823623657226562e-01,4.964728383884973138273632997652384801767766475677e-03,1.000000000000000020816681711721685132943093776703e-02
8.100000000000004973799150320701301097869873046875e-01,2.569980881856775423166538985242368653416633605957e-01,4.389855389235084066890113518866201047785580158234e-03,1.000000000000000020816681711721685132943093776703e-02
8.200000000000005062616992290713824331760406494141e-01,2.570126026969819510448189703311072662472724914551e-01,3.814753910380032364546565304408431984484195709229e-03,1.000000000000000020816681711721685132943093776703e-02
8.300000000000005151434834260726347565650939941406e-01,2.570252070437059610519270336226327344775199890137e-01,3.239427195129618644586777520544274011626839637756e-03,1.000000000000000020816681711721685132943093776703e-02
8.400000000000005240252676230738870799541473388672e-01,2.570358960987279561827278939745156094431877136230e-01,2.663878526564795838627031088208241271786391735077e-03,1.000000000000000020816681711721685132943093776703e-02
8.500000000000005329070518200751394033432006835938e-01,2.570446647687733010556598856055643409490585327148e-01,2.088111222690187170764053448124286660458892583847e-03,1.000000000000000020816681711721685132943093776703e-02
8.600000000000005417888360170763917267322540283203e-01,2.570515079948360037676025058317463845014572143555e-01,1.512128636081803284563207512292137835174798965454e-03,1.000000000000000020816681711721685132943093776703e-02
8.700000000000005506706202140776440501213073730469e-01,2.570564207525971034407064053084468469023704528809e-01,9.359341535299948435996930662383874732768163084984e-04,1.000000000000000020816681711721685132943093776703e-02
8.800000000000005595524044110788963735103607177734e-01,2.570593980528391164774859589670086279511451721191e-01,3.595311956776645664207725516803293430712074041367e-04,1.000000000000000020816681711721685132943093776703e-02
8.900000000000005684341886080801486968994140625000e-01,2.570604349418568190799305739346891641616821289062e-01,-2.170767833462249832982005059989205619785934686661e-04,1.000000000000000020816681711721685132943093776703e-02
