time,u0,u1,tau
0.000000000000000000000000000000000000000000000000e+00,-2.000000000000000111022302462515654042363166809082e-01,5.000000000000004440892098500626161694526672363281e-02,1.000000000000000020816681711721685132943093776703e-02
1.000000000000000020816681711721685132943093776703e-02,-1.998949208653599263207922831497853621840476989746e-01,5.026018716731867064240191211865749210119247436523e-02,1.000000000000000020816681711721685132943093776703e-02
2.000000000000000041633363423443370265886187553406e-02,-1.997891389158150954319381753521156497299671173096e-01,5.052030017724507687804091915495519060641527175903e-02,1.000000000000000020816681711721685132943093776703e-02
2.999999999999999888977697537484345957636833190918e-02,-1.996826529570881747499555558533756993710994720459e-01,5.078033915273569287585075926472200080752372741699e-02,1.000000000000000020816681711721685132943093776703e-02
4.000000000000000083266726846886740531772375106812e-02,-1.995754618009004111023330096941208466887474060059e-01,5.104030421508456982770951526617864146828651428223e-02,1.000000000000000020816681711721685132943093776703e-02
5.000000000000000277555756156289135105907917022705e-02,-1.994675642649876845524659074726514518260955810547e-01,5.130019548398803003186330329299380537122488021851e-02,1.000000000000000020816681711721685132943093776703e-02
6.000000000000000471844785465691529680043458938599e-02,-1.993589591731162735666060825678869150578975677490e-01,5.156001307760940677304972723504761233925819396973e-02,1.000000000000000020816681711721685132943093776703e-02
7.000000000000000666133814775093924254179000854492e-02,-1.992496453550978430246942707526613958179950714111e-01,5.181975711264391604160550741653423756361007690430e-02,1.000000000000000020816681711721685132943093776703e-02
8.000000000000000166533453693773481063544750213623e-02,-1.991396216468040714087095466311438940465450286865e-01,5.207942770438361151930095616080507170408964157104e-02,1.000000000000000020816681711721685132943093776703e-02
8.999999999999999666933092612453037872910499572754e-02,-1.990288868901807506350820631269016303122043609619e-01,5.233902496678242977079520414918079040944576263428e-02,1.000000000000000020816681711721685132943093776703e-02
9.999999999999999167332731531132594682276248931885e-02,-1.989174399332613030200178627637797035276889801025e-01,5.259854901252135339628779320264584384858608245850e-02,1.000000000000000020816681711721685132943093776703e-02
1.099999999999999866773237044981215149164199829102e-01,-1.988052796301798541556138388841645792126655578613e-01,5.285799995307365051200321204305510036647319793701e-02,1.000000000000000020816681711721685132943093776703e-02
1.199999999999999816813200936849170830100774765015e-01,-1.986924048411837229188847686600638553500175476074e-01,5.311737789877020443629618284830939956009387969971e-02,1.000000000000000020816681711721685132943093776703e-02
1.299999999999999766853164828717126511037349700928e-01,-1.985788144326453286137024178970023058354854583740e-01,5.337668295886492664248379469427163712680339813232e-02,1.000000000000000020816681711721685132943093776703e-02
1.399999999999999855671006798729649744927883148193e-01,-1.984645072770737928014028739198693074285984039307e-01,5.363591524160024603951057997619500383734703063965e-02,1.000000000000000020816681711721685132943093776703e-02
1.499999999999999944488848768742172978818416595459e-01,-1.983494822531257084641254095913609489798545837402e-01,5.389507485427268845823434162412013392895460128784e-02,1.000000000000000020816681711721685132943093776703e-02
1.600000000000000033306690738754696212708950042725e-01,-1.982337382456156593679708066702005453407764434814e-01,5.415416190329850470996930766887089703232049942017e-02,1.000000000000000020816681711721685132943093776703e-02
1.700000000000000122124532708767219446599483489990e-01,-1.981172741455259345144668259308673441410064697266e-01,5.441317649427939578954394050924747716635465621948e-02,1.000000000000000020816681711721685132943093776703e-02
1.800000000000000210942374678779742680490016937256e-01,-1.980000888500159650362775209941901266574859619141e-01,5.467211873206827971172216962258971761912107467651e-02,1.000000000000000020816681711721685132943093776703e-02
1.900000000000000299760216648792265914380550384521e-01,-1.978821812624310116923709301772760227322578430176e-01,5.493098872083512079766975944039586465805768966675e-02,1.000000000000000020816681711721685132943093776703e-02
2.000000000000000388578058618804789148271083831787e-01,-1.977635502923104637851281495386501774191856384277e-01,5.518978656413283528925362020345346536487340927124e-02,1.000000000000000020816681711721685132943093776703e-02
2.100000000000000477395900588817312382161617279053e-01,-1.976441948553954441880620152005576528608798980713e-01,5.544851236496322471891673444588377606123685836792e-02,1.000000000000000020816681711721685132943093776703e-02
2.200000000000000566213742558829835616052150726318e-01,-1.975241138736360535510527824953896924853324890137e-01,5.570716622584296479070431473701319191604852676392e-02,1.000000000000000020816681711721685132943093776703e-02
2.300000000000000655031584528842358849942684173584e-01,-1.974033062751979206161934143892722204327583312988e-01,5.596574824886966365022900049552845302969217300415e-02,1.000000000000000020816681711721685132943093776703e-02
2.400000000000000743849426498854882083833217620850e-01,-1.972817709944681696665469416984706185758113861084e-01,5.622425853578793403242386261808860581368207931519e-02,1.000000000000000020816681711721685132943093776703e-02
2.500000000000000555111512312578270211815834045410e-01,-1.971595069720610549079964357588323764503002166748e-01,5.648269718805549316487102373685047496110200881958e-02,1.000000000000000020816681711721685132943093776703e-02
2.600000000000000643929354282590793445706367492676e-01,-1.970365131548227899394021278567379340529441833496e-01,5.674106430690932512117541364204953424632549285889e-02,1.000000000000000020816681711721685132943093776703e-02
2.700000000000000732747196252603316679596900939941e-01,-1.969127884958359886446999098552623763680458068848e-01,5.699935999343187092991414033349428791552782058716e-02,1.000000000000000020816681711721685132943093776703e-02
2.800000000000000821565038222615839913487434387207e-01,-1.967883319544234677067606753553263843059539794922e-01,5.725758434861721174469195716483227442950010299683e-02,1.000000000000000020816681711721685132943093776703e-02
2.900000000000000910382880192628363147377967834473e-01,-1.966631424961515217653129639074904844164848327637e-01,5.751573747343729364756015343118633609265089035034e-02,1.000000000000000020816681711721685132943093776703e-02
3.000000000000000999200722162640886381268501281738e-01,-1.965372190928326157077776770165655761957168579102e-01,5.777381946890817326911715667847602162510156631470e-02,1.000000000000000020816681711721685132943093776703e-02
3.100000000000001088018564132653409615159034729004e-01,-1.964105607225275773597417128257802687585353851318e-01,5.803183043615627728639694282719574403017759323120e-02,1.000000000000000020816681711721685132943093776703e-02
3.200000000000001176836406102665932849049568176270e-01,-1.962831663695470962860412100781104527413845062256e-01,5.828977047648463416518183066727942787110805511475e-02,1.000000000000000020816681711721685132943093776703e-02
3.300000000000001265654248072678456082940101623535e-01,-1.961550350244528062582105576439062133431434631348e-01,5.854763969143916835236041151802055537700653076172e-02,1.000000000000000020816681711721685132943093776703e-02
3.400000000000001354472090042690979316830635070801e-01,-1.960261656840577015881166289545944891870021820068e-01,5.880543818287494589602815153739356901496648788452e-02,1.000000000000000020816681711721685132943093776703e-02
3.500000000000001443289932012703502550721168518066e-01,-1.958965573514259983500807038581115193665027618408e-01,5.906316605302243394337580184583202935755252838135e-02,1.000000000000000020816681711721685132943093776703e-02
3.600000000000001532107773982716025784611701965332e-01,-1.957662090358724960026393091538920998573303222656e-01,5.932082340455375329968390474277839530259370803833e-02,1.000000000000000020816681711721685132943093776703e-02
3.700000000000001620925615952728549018502235412598e-01,-1.956351197529612451209146684050210751593112945557e-01,5.957841034064891017063558820154867134988307952881e-02,1.000000000000000020816681711721685132943093776703e-02
3.800000000000001709743457922741072252392768859863e-01,-1.955032885245037155286240704299416393041610717773e-01,5.983592696506200708794764864251192193478345870972e-02,1.000000000000000020816681711721685132943093776703e-02
3.900000000000001798561299892753595486283302307129e-01,-1.953707143785564370741525408448069356381893157959e-01,6.009337338218745383500163370626978576183319091797e-02,1.000000000000000020816681711721685132943093776703e-02
4.000000000000001887379141862766118720173835754395e-01,-1.952373963494179187616595072540803812444210052490e-01,6.035074969712612980021759767623734660446643829346e-02,1.000000000000000020816681711721685132943093776703e-02
4.100000000000001976196983832778641954064369201660e-01,-1.951033334776251515485512300074333325028419494629e-01,6.060805601575151163595833736508211586624383926392e-02,1.000000000000000020816681711721685132943093776703e-02
4.200000000000002065014825802791165187954902648926e-01,-1.949685248099493894979872266048914752900600433350e-01,6.086529244477578703964582018670625984668731689453e-02,1.000000000000000020816681711721685132943093776703e-02
4.300000000000002153832667772803688421845436096191e-01,-1.948329693993914590866012304104515351355075836182e-01,6.112245909181591996262028487763018347322940826416e-02,1.000000000000000020816681711721685132943093776703e-02
4.400000000000002242650509742816211655735969543457e-01,-1.946966663051764023784073742717737331986427307129e-01,6.137955606545966724674201486777747049927711486816e-02,1.000000000000000020816681711721685132943093776703e-02
4.500000000000002331468351712828734889626502990723e-01,-1.945596145927476483539209084483445622026920318604e-01,6.163658347533153281094797648620442487299442291260e-02,1.000000000000000020816681711721685132943093776703e-02
4.600000000000002420286193682841258123517036437988e-01,-1.944218133337604348387372965589747764170169830322e-01,6.189354143215871489891455325960123445838689804077e-02,1.000000000000000020816681711721685132943093776703e-02
4.700000000000002509104035652853781357407569885254e-01,-1.942832616060747585873258458377677015960216522217e-01,6.215043004783694230441781769513909239321947097778e-02,1.000000000000000020816681711721685132943093776703e-02
4.800000000000002597921877622866304591298103332520e-01,-1.941439584937477702553110248118173331022262573242e-01,6.240724943549627590222428352717543020844459533691e-02,1.000000000000000020816681711721685132943093776703e-02
4.900000000000002686739719592878827825188636779785e-01,-1.940039030870254199712121589982416480779647827148e-01,6.266399970956684772893652279890375211834907531738e-02,1.000000000000000020816681711721685132943093776703e-02
5.000000000000002220446049250313080847263336181641e-01,-1.938630944823337143301245077964267693459987640381e-01,6.292068098584452373600583996449131518602371215820e-02,1.000000000000000020816681711721685132943093776703e-02
5.100000000000002309263891220325604081153869628906e-01,-1.937215317822691962312831037706928327679634094238e-01,6.317729338155647633712419519724790006875991821289e-02,1.000000000000000020816681711721685132943093776703e-02
5.200000000000002398081733190338127315044403076172e-01,-1.935792140955890083819923574992571957409381866455e-01,6.343383701542668062778318471828242763876914978027e-02,1.000000000000000020816681711721685132943093776703e-02
5.300000000000002486899575160350650548934936523438e-01,-1.934361405372001796454384248136193491518497467041e-01,6.369031200774134815478788596010417677462100982666e-02,1.000000000000000020816681711721685132943093776703e-02
5.400000000000002575717417130363173782825469970703e-01,-1.932923102281484672992917239753296598792076110840e-01,6.394671848041426354125604802902671508491039276123e-02,1.000000000000000020816681711721685132943093776703e-02
5.500000000000002664535259100375697016716003417969e-01,-1.931477222956065054049190621299203485250473022461e-01,6.420305655705199621152701183746103197336196899414e-02,1.000000000000000020816681711721685132943093776703e-02
5.600000000000002753353101070388220250606536865234e-01,-1.930023758728614535762346804403932765126228332520e-01,6.445932636301905660491939897838165052235126495361e-02,1.000000000000000020816681711721685132943093776703e-02
5.700000000000002842170943040400743484497070312500e-01,-1.928562700993019241035852928689564578235149383545e-01,6.471552802550291361161072245522518642246723175049e-02,1.000000000000000020816681711721685132943093776703e-02
5.800000000000002930988785010413266718387603759766e-01,-1.927094041204044094772740436383173801004886627197e-01,6.497166167357892874179015052504837512969970703125e-02,1.000000000000000020816681711721685132943093776703e-02
5.900000000000003019806626980425789952278137207031e-01,-1.925617770877190715328453052279655821621417999268e-01,6.522772743827516539472100021157530136406421661377e-02,1.000000000000000020816681711721685132943093776703e-02
6.000000000000003108624468950438313186168670654297e-01,-1.924133881588549477292815481632715091109275817871e-01,6.548372545263708710550076830259058624505996704102e-02,1.000000000000000020816681711721685132943093776703e-02
6.100000000000003197442310920450836420059204101562e-01,-1.922642364974645190489610513395746238529682159424e-01,6.573965585179211701394308420276502147316932678223e-02,1.000000000000000020816681711721685132943093776703e-02
6.200000000000003286260152890463359653949737548828e-01,-1.921143212732277505416789153969148173928260803223e-01,6.599551877301408631115720027082716114819049835205e-02,1.000000000000000020816681711721685132943093776703e-02
6.300000000000003375077994860475882887840270996094e-01,-1.919636416618353824681264541140990331768989562988e-01,6.625131435578755778603721182662411592900753021240e-02,1.000000000000000020816681711721685132943093776703e-02
6.400000000000003463895836830488406121730804443359e-01,-1.918121968449718051097363513690652325749397277832e-01,6.650704274187199671608539119915803894400596618652e-02,1.000000000000000020816681711721685132943093776703e-02
6.500000000000003552713678800500929355621337890625e-01,-1.916599860102972119335618117474950850009918212891e-01,6.676270407536578910256963581559830345213413238525e-02,1.000000000000000020816681711721685132943093776703e-02
6.600000000000003641531520770513452589511871337891e-01,-1.915070083514291976456433985731564462184906005859e-01,6.701829850277016276116626158909639343619346618652e-02,1.000000000000000020816681711721685132943093776703e-02
6.700000000000003730349362740525975823402404785156e-01,-1.913532630679236345994098655864945612847805023193e-01,6.727382617305290024578567908974946476519107818604e-02,1.000000000000000020816681711721685132943093776703e-02
6.800000000000003819167204710538499057292938232422e-01,-1.911987493652551606260203698184341192245483398438e-01,6.752928723771192687230779938545310869812965393066e-02,1.000000000000000020816681711721685132943093776703e-02
6.900000000000003907985046680551022291183471679688e-01,-1.910434664547968619530138312256895005702972412109e-01,6.778468185083873220886374610927305184304714202881e-02,1.000000000000000020816681711721685132943093776703e-02
7.000000000000003996802888650563545525074005126953e-01,-1.908874135537994565225972110056318342685699462891e-01,6.804001016918162503266387375333579257130622863770e-02,1.000000000000000020816681711721685132943093776703e-02
7.100000000000004085620730620576068758964538574219e-01,-1.907305898853697834205433991883182898163795471191e-01,6.829527235220883563115990000369492918252944946289e-02,1.000000000000000020816681711721685132943093776703e-02
7.200000000000004174438572590588591992855072021484e-01,-1.905729946784487927047280209080781787633895874023e-01,6.855046856217140993638992085834615863859653472900e-02,1.000000000000000020816681711721685132943093776703e-02
7.300000000000004263256414560601115226745605468750e-01,-1.904146271677888690998514675811748020350933074951e-01,6.880559896416595100365753978621796704828739166260e-02,1.000000000000000020816681711721685132943093776703e-02
7.400000000000004352074256530613638460636138916016e-01,-1.902554865939304895583461529895430430769920349121e-01,6.906066372619715232339387966931099072098731994629e-02,1.000000000000000020816681711721685132943093776703e-02
7.500000000000004440892098500626161694526672363281e-01,-1.900955722031784367320739193019107915461063385010e-01,6.931566301924017847735370878581306897103786468506e-02,1.000000000000000020816681711721685132943093776703e-02
7.600000000000004529709940470638684928417205810547e-01,-1.899348832475771797767549742275150492787361145020e-01,6.957059701730279599463102613299270160496234893799e-02,1.000000000000000020816681711721685132943093776703e-02
7.700000000000004618527782440651208162307739257812e-01,-1.897734189848858388227625937361153773963451385498e-01,6.982546589748736542979656860552495345473289489746e-02,1.000000000000000020816681711721685132943093776703e-02
7.800000000000004707345624410663731396198272705078e-01,-1.896111786785524278009518184262560680508613586426e-01,7.008026984005259751864258532805251888930797576904e-02,1.000000000000000020816681711721685132943093776703e-02
7.900000000000004796163466380676254630088806152344e-01,-1.894481615976875699125514529441716149449348449707e-01,7.033500902847508728932268695643870159983634948730e-02,1.000000000000000020816681711721685132943093776703e-02
8.000000000000004884981308350688777863979339599609e-01,-1.892843670170374914540900590509409084916114807129e-01,7.058968364951066776225019339108257554471492767334e-02,1.000000000000000020816681711721685132943093776703e-02
8.100000000000004973799150320701301097869873046875e-01,-1.891197942169565160419608673691982403397560119629e-01,7.084429389325552772760374864446930587291717529297e-02,1.000000000000000020816681711721685132943093776703e-02
8.200000000000005062616992290713824331760406494141e-01,-1.889544424833788649475962984070065431296825408936e-01,7.109883995320707972265239504849887453019618988037e-02,1.000000000000000020816681711721685132943093776703e-02
8.300000000000005151434834260726347565650939941406e-01,-1.887883111077899023211301710034604184329509735107e-01,7.135332202632467535341476150279049761593341827393e-02,1.000000000000000020816681711721685132943093776703e-02
8.400000000000005240252676230738870799541473388672e-01,-1.886213993871967975479719825671054422855377197266e-01,7.160774031308997367162305636156816035509109497070e-02,1.000000000000000020816681711721685132943093776703e-02
8.500000000000005329070518200751394033432006835938e-01,-1.884537066240984104492639517047791741788387298584e-01,7.186209501756718465159678999043535441160202026367e-02,1.000000000000000020816681711721685132943093776703e-02
8.600000000000005417888360170763917267322540283203e-01,-1.882852321264548156598550576745765283703804016113e-01,7.211638634746300735578472540510119870305061340332e-02,1.000000000000000020816681711721685132943093776703e-02
8.700000000000005506706202140776440501213073730469e-01,-1.881159752076560220945822266003233380615711212158e-01,7.237061451418630442233848043542820960283279418945e-02,1.000000000000000020816681711721685132943093776703e-02
8.800000000000005595524044110788963735103607177734e-01,-1.879459351864900817918879738499526865780353546143e-01,7.262477973290759614144462830154225230216979980469e-02,1.000000000000000020816681711721685132943093776703e-02
8.900000000000005684341886080801486968994140625000e-01,-1.877751113871108101793794276090920902788639068604e-01,7.287888222261820758696160282852360978722572326660e-02,1.000000000000000020816681711721685132943093776703e-02
