time,u0,u1,tau
0.000000000000000000000000000000000000000000000000e+00,-2.500000000000000000000000000000000000000000000000e-01,2.500000000000002220446049250313080847263336181641e-02,1.000000000000000020816681711721685132943093776703e-02
1.000000000000000020816681711721685132943093776703e-02,-2.499267006722497574955355048587080091238021850586e-01,2.553141099682405823489972362949629314243793487549e-02,1.000000000000000020816681711721685132943093776703e-02
2.000000000000000041633363423443370265886187553406e-02,-2.498517611021350282030084599682595580816268920898e-01,2.606266840071551349478085057853604666888713836670e-02,1.000000000000000020816681711721685132943093776703e-02
2.999999999999999888977697537484345957636833190918e-02,-2.497751784539562480702556968026328831911087036133e-01,2.659377024272690723250001099131623050197958946228e-02,1.000000000000000020816681711721685132943093776703e-02
4.000000000000000083266726846886740531772375106812e-02,-2.496969499174524209639258742754464037716388702393e-01,2.712471453686984487752020811512920772656798362732e-02,1.000000000000000020816681711721685132943093776703e-02
5.000000000000000277555756156289135105907917022705e-02,-2.496170727080010698362144694328890182077884674072e-01,2.765549928042363922453539260004617972299456596375e-02,1.000000000000000020816681711721685132943093776703e-02
6.000000000000000471844785465691529680043458938599e-02,-2.495355440668145241556175051300670020282268524170e-01,2.818612245424590226350325394832907477393746376038e-02,1.000000000000000020816681711721685132943093776703e-02
7.000000000000000666133814775093924254179000854492e-02,-2.494523612611331542243675585268647409975528717041e-01,2.871658202308502785826682668357534566894173622131e-02,1.000000000000000020816681711721685132943093776703e-02
8.000000000000000166533453693773481063544750213623e-02,-2.493675215844149417598885065672220662236213684082e-01,2.924687593589459302934052686850918689742684364319e-02,1.000000000000000020816681711721685132943093776703e-02
8.999999999999999666933092612453037872910499572754e-02,-2.492810223565217475627520116177038289606571197510e-01,2.977700212614960151302767599190701730549335479736e-02,1.000000000000000020816681711721685132943093776703e-02
9.999999999999999167332731531132594682276248931885e-02,-2.491928609239020542265308222340536303818225860596e-01,3.030695851216454531074084854935790644958615303040e-02,1.000000000000000020816681711721685132943093776703e-02
1.099999999999999866773237044981215149164199829102e-01,-2.491030346597702671562757359424722380936145782471e-01,3.083674299741328769797199527147313347086310386658e-02,1.000000000000000020816681711721685132943093776703e-02
1.199999999999999816813200936849170830100774765015e-01,-2.490115409642823796065869146332261152565479278564e-01,3.136635347085067748729159120557596907019615173340e-02,1.000000000000000020816681711721685132943093776703e-02
1.299999999999999766853164828717126511037349700928e-01,-2.489183772647083070506113244846346788108348846436e-01,3.189578780723589107592985669725749175995588302612e-02,1.000000000000000020816681711721685132943093776703e-02
1.399999999999999855671006798729649744927883148193e-01,-2.488235410156003912796052190969930961728096008301e-01,3.242504386745750921683395517902681604027748107910e-02,1.000000000000000020816681711721685132943093776703e-02
1.499999999999999944488848768742172978818416595459e-01,-2.487270296989585183222715158990467898547649383545e-01,3.295411949886017238808832985341723542660474777222e-02,1.000000000000000020816681711721685132943093776703e-02
1.600000000000000033306690738754696212708950042725e-01,-2.486288408243914893613890626511420123279094696045e-01,3.348301253557294659968235350788745563477277755737e-02,1.000000000000000020816681711721685132943093776703e-02
1.700000000000000122124532708767219446599483489990e-01,-2.485289719292748111811874878185335546731948852539e-01,3.401172079883921922638378987358009908348321914673e-02,1.000000000000000020816681711721685132943093776703e-02
1.800000000000000210942374678779742680490016937256e-01,-2.484274205789047951231651722991955466568470001221e-01,3.454024209734815609174063411046518012881278991699e-02,1.000000000000000020816681711721685132943093776703e-02
1.900000000000000299760216648792265914380550384521e-01,-2.483241843666488812836234956193948164582252502441e-01,3.506857422756770592542352460441179573535919189453e-02,1.000000000000000020816681711721685132943093776703e-02
2.000000000000000388578058618804789148271083831787e-01,-2.482192609140924099975222816283348947763442993164e-01,3.559671497407904811050016746776236686855554580688e-02,1.000000000000000020816681711721685132943093776703e-02
2.100000000000000477395900588817312382161617279053e-01,-2.481126478711814520305978248870815150439739227295e-01,3.612466210991249759842958155786618590354919433594e-02,1.000000000000000020816681711721685132943093776703e-02
2.200000000000000566213742558829835616052150726318e-01,-2.480043429163620305466508852987317368388175964355e-01,3.665241339688483229730664447743038181215524673462e-02,1.000000000000000020816681711721685132943093776703e-02
2.300000000000000655031584528842358849942684173584e-01,-2.478943437567155128053997259485186077654361724854e-01,3.717996658593795966663009266994777135550975799561e-02,1.000000000000000020816681711721685132943093776703e-02
2.400000000000000743849426498854882083833217620850e-01,-2.477826481280900883241713472671108320355415344238e-01,3.770731941747893639638178342465835157781839370728e-02,1.000000000000000020816681711721685132943093776703e-02
2.500000000000000555111512312578270211815834045410e-01,-2.476692537952285277924602269195020198822021484375e-01,3.823446962172127872037208362598903477191925048828e-02,1.000000000000000020816681711721685132943093776703e-02
2.600000000000000643929354282590793445706367492676e-01,-2.475541585518920839614764872749219648540019989014e-01,3.876141491902750091380625008241622708737850189209e-02,1.000000000000000020816681711721685132943093776703e-02
2.700000000000000732747196252603316679596900939941e-01,-2.474373602209804512419566435710294172167778015137e-01,3.928815302025290973064741706366476137191057205200e-02,1.000000000000000020816681711721685132943093776703e-02
2.800000000000000821565038222615839913487434387207e-01,-2.473188566546478117658125484012998640537261962891e-01,3.981468162709055069736763243781751953065395355225e-02,1.000000000000000020816681711721685132943093776703e-02
2.900000000000000910382880192628363147377967834473e-01,-2.471986457344150789339209950412623584270477294922e-01,4.034099843241727850751132677942223381251096725464e-02,1.000000000000000020816681711721685132943093776703e-02
3.000000000000000999200722162640886381268501281738e-01,-2.470767253712780886498734389533638022840023040771e-01,4.086710112064095151707121544859546702355146408081e-02,1.000000000000000020816681711721685132943093776703e-02
3.100000000000001088018564132653409615159034729004e-01,-2.469530935058118770175639156150282360613346099854e-01,4.139298736804866707394978675438323989510536193848e-02,1.000000000000000020816681711721685132943093776703e-02
3.200000000000001176836406102665932849049568176270e-01,-2.468277481082709612358883077831706032156944274902e-01,4.191865484315600992593076057346479501575231552124e-02,1.000000000000000020816681711721685132943093776703e-02
3.300000000000001265654248072678456082940101623535e-01,-2.467006871786856514461305778240785002708435058594e-01,4.244410120705727207379709398082923144102096557617e-02,1.000000000000000020816681711721685132943093776703e-02
3.400000000000001354472090042690979316830635070801e-01,-2.465719087469543380208847338508348912000656127930e-01,4.296932411377660937512601435628312174230813980103e-02,1.000000000000000020816681711721685132943093776703e-02
3.500000000000001443289932012703502550721168518066e-01,-2.464414108729317265389369140393682755529880523682e-01,4.349432121062010020429156043064722325652837753296e-02,1.000000000000000020816681711721685132943093776703e-02
3.600000000000001532107773982716025784611701965332e-01,-2.463091916465130759572588203809573315083980560303e-01,4.401909013852862290194778438490175176411867141724e-02,1.000000000000000020816681711721685132943093776703e-02
3.700000000000001620925615952728549018502235412598e-01,-2.461752491877143012022344237266224808990955352783e-01,4.454362853243157283067432672396535053849220275879e-02,1.000000000000000020816681711721685132943093776703e-02
3.800000000000001709743457922741072252392768859863e-01,-2.460395816467480512024224026390584185719490051270e-01,4.506793402160131495337580531668209005147218704224e-02,1.000000000000000020816681711721685132943093776703e-02
3.900000000000001798561299892753595486283302307129e-01,-2.459021872040955958294006222786265425384044647217e-01,4.559200423000837887332892250924487598240375518799e-02,1.000000000000000020816681711721685132943093776703e-02
4.000000000000001887379141862766118720173835754395e-01,-2.457630640705747993024488096125423908233642578125e-01,4.611583677667731306915044342531473375856876373291e-02,1.000000000000000020816681711721685132943093776703e-02
4.100000000000001976196983832778641954064369201660e-01,-2.456222104874037359678595748846419155597686767578e-01,4.663942927604319832468604545283596962690353393555e-02,1.000000000000000020816681711721685132943093776703e-02
4.200000000000002065014825802791165187954902648926e-01,-2.454796247262602815197851668926887214183807373047e-01,4.716277933830872320930538421634992118924856185913e-02,1.000000000000000020816681711721685132943093776703e-02
4.300000000000002153832667772803688421845436096191e-01,-2.453353050893375131291662682997412048280239105225e-01,4.768588456980182160860337603480729740113019943237e-02,1.000000000000000020816681711721685132943093776703e-02
4.400000000000002242650509742816211655735969543457e-01,-2.451892499093950017474696778663201257586479187012e-01,4.820874257333381679435646560705208685249090194702e-02,1.000000000000000020816681711721685132943093776703e-02
4.500000000000002331468351712828734889626502990723e-01,-2.450414575498058578073568014588090591132640838623e-01,4.873135094855800958368874375992163550108671188354e-02,1.000000000000000020816681711721685132943093776703e-02
4.600000000000002420286193682841258123517036437988e-01,-2.448919264045995858314341830919147469103336334229e-01,4.925370729232869670966010744450613856315612792969e-02,1.000000000000000020816681711721685132943093776703e-02
4.700000000000002509104035652853781357407569885254e-01,-2.447406548985007201935104603762738406658172607422e-01,4.977580919906054307544351900105539243668317794800e-02,1.000000000000000020816681711721685132943093776703e-02
4.800000000000002597921877622866304591298103332520e-01,-2.445876414869633530546622068868600763380527496338e-01,5.029765426108828013651574906361929606646299362183e-02,1.000000000000000020816681711721685132943093776703e-02
4.900000000000002686739719592878827825188636779785e-01,-2.444328846562012491627768895341432653367519378662e-01,5.081924006902670959417989138273696880787611007690e-02,1.000000000000000020816681711721685132943093776703e-02
5.000000000000002220446049250313080847263336181641e-01,-2.442763829232138805824803284849622286856174468994e-01,5.134056421213088750032937923606368713080883026123e-02,1.000000000000000020816681711721685132943093776703e-02
5.100000000000002309263891220325604081153869628906e-01,-2.441181348358081593108437346018035896122455596924e-01,5.186162427865654428460473468476266134530305862427e-02,1.000000000000000020816681711721685132943093776703e-02
5.200000000000002398081733190338127315044403076172e-01,-2.439581389726158955344459400293999351561069488525e-01,5.238241785622062274274668425277923233807086944580e-02,1.000000000000000020816681711721685132943093776703e-02
5.300000000000002486899575160350650548934936523438e-01,-2.437963939431069537722152062997338362038135528564e-01,5.290294253216192704725173712176911067217588424683e-02,1.000000000000000020816681711721685132943093776703e-02
5.400000000000002575717417130363173782825469970703e-01,-2.436328983875982179263530724711017683148384094238e-01,5.342319589390179257470947504771174862980842590332e-02,1.000000000000000020816681711721685132943093776703e-02
5.500000000000002664535259100375697016716003417969e-01,-2.434676509772582819746133964144974015653133392334e-01,5.394317552930479042760936181366560049355030059814e-02,1.000000000000000020816681711721685132943093776703e-02
5.600000000000002753353101070388220250606536865234e-01,-2.433006504141077275260585111027467064559459686279e-01,5.446287902703936950610241751746798399835824966431e-02,1.000000000000000020816681711721685132943093776703e-02
5.700000000000002842170943040400743484497070312500e-01,-2.431318954310152102848974209337029606103897094727e-01,5.498230397693842919082385378715116530656814575195e-02,1.000000000000000020816681711721685132943093776703e-02
5.800000000000002930988785010413266718387603759766e-01,-2.429613847916892721556791912007611244916915893555e-01,5.550144797035971855336811131564900279045104980469e-02,1.000000000000000020816681711721685132943093776703e-02
5.900000000000003019806626980425789952278137207031e-01,-2.427891172906656569452366056793835014104843139648e-01,5.602030860054608291109801143647928256541490554810e-02,1.000000000000000020816681711721685132943093776703e-02
6.000000000000003108624468950438313186168670654297e-01,-2.426150917532906292617411736500798724591732025146e-01,5.653888346298548833734898266811796929687261581421e-02,1.000000000000000020816681711721685132943093776703e-02
6.100000000000003197442310920450836420059204101562e-01,-2.424393070356996304770547112639178521931171417236e-01,5.705717015577072698251370752586808521300554275513e-02,1.000000000000000020816681711721685132943093776703e-02
6.200000000000003286260152890463359653949737548828e-01,-2.422617620247918823750410410866606980562210083008e-01,5.757516627995883790047670913736510556191205978394e-02,1.000000000000000020816681711721685132943093776703e-02
6.300000000000003375077994860475882887840270996094e-01,-2.420824556382005499077791910167434252798557281494e-01,5.809286943993012541920251123883645050227642059326e-02,1.000000000000000020816681711721685132943093776703e-02
6.400000000000003463895836830488406121730804443359e-01,-2.419013868242585463264049394638277590274810791016e-01,5.861027724374679587215908327380020637065172195435e-02,1.000000000000000020816681711721685132943093776703e-02
6.500000000000003552713678800500929355621337890625e-01,-2.417185545619601472200344005614169873297214508057e-01,5.912738730351108085159239635686390101909637451172e-02,1.000000000000000020816681711721685132943093776703e-02
6.600000000000003641531520770513452589511871337891e-01,-2.415339578609180526402866462376550771296024322510e-01,5.964419723572288167812160963876522146165370941162e-02,1.000000000000000020816681711721685132943093776703e-02
6.700000000000003730349362740525975823402404785156e-01,-2.413475957613163969117664464647532440721988677979e-01,6.016070466163684488103413627868576440960168838501e-02,1.000000000000000020816681711721685132943093776703e-02
6.800000000000003819167204710538499057292938232422e-01,-2.411594673338591787725704307376872748136520385742e-01,6.067690720761879930034154995155404321849346160889e-02,1.000000000000000020816681711721685132943093776703e-02
6.900000000000003907985046680551022291183471679688e-01,-2.409695716797145281784509052158682607114315032959e-01,6.119280250550158950506585142647963948547840118408e-02,1.000000000000000020816681711721685132943093776703e-02
7.000000000000003996802888650563545525074005126953e-01,-2.407779079304545044593055536097381263971328735352e-01,6.170838819294015981098411316452256869524717330933e-02,1.000000000000000020816681711721685132943093776703e-02
7.100000000000004085620730620576068758964538574219e-01,-2.405844752479907588949004093592520803213119506836e-01,6.222366191376589583672540584302623756229877471924e-02,1.000000000000000020816681711721685132943093776703e-02
7.200000000000004174438572590588591992855072021484e-01,-2.403892728245055898650406334127183072268962860107e-01,6.273862131834018196485658336314372718334197998047e-02,1.000000000000000020816681711721685132943093776703e-02
7.300000000000004263256414560601115226745605468750e-01,-2.401922998823790011968526414420921355485916137695e-01,6.325326406390707756344227163936011493206024169922e-02,1.000000000000000020816681711721685132943093776703e-02
7.400000000000004352074256530613638460636138916016e-01,-2.399935556741111530865140366586274467408657073975e-01,6.376758781494513972365467679992434568703174591064e-02,1.000000000000000020816681711721685132943093776703e-02
7.500000000000004440892098500626161694526672363281e-01,-2.397930394822406774402168139204150065779685974121e-01,6.428159024351828843002465418976498767733573913574e-02,1.000000000000000020816681711721685132943093776703e-02
7.600000000000004529709940470638684928417205810547e-01,-2.395907506192586078341832944715861231088638305664e-01,6.479526902962565171328890301083447411656379699707e-02,1.000000000000000020816681711721685132943093776703e-02
7.700000000000004618527782440651208162307739257812e-01,-2.393866884275179518493104069420951418578624725342e-01,6.530862186155039772472719050711020827293395996094e-02,1.000000000000000020816681711721685132943093776703e-02
7.800000000000004707345624410663731396198272705078e-01,-2.391808522791391000694716240104753524065017700195e-01,6.582164643620747046526275880751200020313262939453e-02,1.000000000000000020816681711721685132943093776703e-02
7.900000000000004796163466380676254630088806152344e-01,-2.389732415759108219432960140693467110395431518555e-01,6.633434045949022916932591442673583514988422393799e-02,1.000000000000000020816681711721685132943093776703e-02
8.000000000000004884981308350688777863979339599609e-01,-2.387638557491869595317268704093294218182563781738e-01,6.684670164661583868781491446497966535389423370361e-02,1.000000000000000020816681711721685132943093776703e-02
8.100000000000004973799150320701301097869873046875e-01,-2.385526942597789301636623804370174184441566467285e-01,6.735872772246946638130538076438824646174907684326e-02,1.000000000000000020816681711721685132943093776703e-02
8.200000000000005062616992290713824331760406494141e-01,-2.383397565978438714662246411535306833684444427490e-01,6.787041642194724389014481857884675264358520507812e-02,1.000000000000000020816681711721685132943093776703e-02
8.300000000000005151434834260726347565650939941406e-01,-2.381250422827685397919594834093004465103149414062e-01,6.838176549029781337019073816918535158038139343262e-02,1.000000000000000020816681711721685132943093776703e-02
8.400000000000005240252676230738870799541473388672e-01,-2.379085508630489620429671049350872635841369628906e-01,6.889277268346258309428264965390553697943687438965e-02,1.000000000000000020816681711721685132943093776703e-02
8.500000000000005329070518200751394033432006835938e-01,-2.376902819161657853808122808914049528539180755615e-01,6.940343576841451200820642952749039977788925170898e-02,1.000000000000000020816681711721685132943093776703e-02
8.600000000000005417888360170763917267322540283203e-01,-2.374702350484554636000922300809179432690143585205e-01,6.991375252349546487451448228966910392045974731445e-02,1.000000000000000020816681711721685132943093776703e-02
8.700000000000005506706202140776440501213073730469e-01,-2.372484098949771691433596743081579916179180145264e-01,7.042372073875204085968704248443827964365482330322e-02,1.000000000000000020816681711721685132943093776703e-02
8.800000000000005595524044110788963735103607177734e-01,-2.370248061193754307574010908865602687001228332520e-01,7.093333821626984780905900151992682367563247680664e-02,1.000000000000000020816681711721685132943093776703e-02
8.900000000000005684341886080801486968994140625000e-01,-2.367994234137386355687482364373863674700260162354e-01,7.144260277050615282057322019682032987475395202637e-02,1.000000000000000020816681711721685132943093776703e-02
