time,u0,u1,tau
0.000000000000000000000000000000000000000000000000e+00,1.000000000000000020816681711721685132943093776703e-02,7.000000000000000666133814775093924254179000854492e-02,1.000000000000000020816681711721685132943093776703e-02
1.000000000000000020816681711721685132943093776703e-02,1.004213245430656507861666426606461755000054836273e-02,7.000213068588775899847576056345133110880851745605e-02,1.000000000000000020816681711721685132943093776703e-02
2.000000000000000041633363423443370265886187553406e-02,1.008453191040624766228184228111786069348454475403e-02,7.000453184712300547243302162314648739993572235107e-02,1.000000000000000020816681711721685132943093776703e-02
2.999999999999999888977697537484345957636833190918e-02,1.012719867805423647200147030389416613616049289703e-02,7.000720353133965678793515508004929870367050170898e-02,1.000000000000000020816681711721685132943093776703e-02
4.000000000000000083266726846886740531772375106812e-02,1.017013306872713296336030452948762103915214538574e-02,7.001014578732478454980991955380886793136596679688e-02,1.000000000000000020816681711721685132943093776703e-02
5.000000000000000277555756156289135105907917022705e-02,1.021333539563044033593453008279539062641561031342e-02,7.001335866501523508276250140625052154064178466797e-02,1.000000000000000020816681711721685132943093776703e-02
6.000000000000000471844785465691529680043458938599e-02,1.025680597370604539564364898751591681502759456635e-02,7.001684221549421549557479238501400686800479888916e-02,1.000000000000000020816681711721685132943093776703e-02
7.000000000000000666133814775093924254179000854492e-02,1.030054511963966919207980055261941743083298206329e-02,7.002059649098785198972905163827817887067794799805e-02,1.000000000000000020816681711721685132943093776703e-02
8.000000000000000166533453693773481063544750213623e-02,1.034455315186832286000750968923966865986585617065e-02,7.002462154486160939015348958491813391447067260742e-02,1.000000000000000020816681711721685132943093776703e-02
8.999999999999999666933092612453037872910499572754e-02,1.038883039058772876639391569142389926128089427948e-02,7.002891743161673843154346741357585415244102478027e-02,1.000000000000000020816681711721685132943093776703e-02
9.999999999999999167332731531132594682276248931885e-02,1.043337715775973992271552504007559036836028099060e-02,7.003348420688663977795584969499032013118267059326e-02,1.000000000000000020816681711721685132943093776703e-02
1.099999999999999866773237044981215149164199829102e-01,1.047819377711973684585977650840504793450236320496e-02,7.003832192743311702010089447867358103394508361816e-02,1.000000000000000020816681711721685132943093776703e-02
1.199999999999999816813200936849170830100774765015e-01,1.052328057418401054123879845292321988381445407867e-02,7.004343065114264355042195120404358021914958953857e-02,1.000000000000000020816681711721685132943093776703e-02
1.299999999999999766853164828717126511037349700928e-01,1.056863787625713854700926219720713561400771141052e-02,7.004881043702254617144831172481644898653030395508e-02,1.000000000000000020816681711721685132943093776703e-02
1.399999999999999855671006798729649744927883148193e-01,1.061426601243933148799314380994474049657583236694e-02,7.005446134519707768184559881774475798010826110840e-02,1.000000000000000020816681711721685132943093776703e-02
1.499999999999999944488848768742172978818416595459e-01,1.066016531363377962959848588297973037697374820709e-02,7.006038343690351721804177032026927918195724487305e-02,1.000000000000000020816681711721685132943093776703e-02
1.600000000000000033306690738754696212708950042725e-01,1.070633611255397861505844758767125313170254230499e-02,7.006657677448815957355066075251670554280281066895e-02,1.000000000000000020816681711721685132943093776703e-02
1.700000000000000122124532708767219446599483489990e-01,1.075277874373103785543559496318266610614955425262e-02,7.007304142140223512935648386701359413564205169678e-02,1.000000000000000020816681711721685132943093776703e-02
1.800000000000000210942374678779742680490016937256e-01,1.079949354352098545017923925115610472857952117920e-02,7.007977744219778815093491175503004342317581176758e-02,1.000000000000000020816681711721685132943093776703e-02
1.900000000000000299760216648792265914380550384521e-01,1.084648085011204361738368362466644612140953540802e-02,7.008678490252349957412292269509634934365749359131e-02,1.000000000000000020816681711721685132943093776703e-02
2.000000000000000388578058618804789148271083831787e-01,1.089374100353190585876994589398236712440848350525e-02,7.009406386912039876868618648586561903357505798340e-02,1.000000000000000020816681711721685132943093776703e-02
2.100000000000000477395900588817312382161617279053e-01,1.094127434565499330798576949064226937480270862579e-02,7.010161440981758917967425759343313984572887420654e-02,1.000000000000000020816681711721685132943093776703e-02
2.200000000000000566213742558829835616052150726318e-01,1.098908122020969373167087468345926026813685894012e-02,7.010943659352784906868549796854495070874691009521e-02,1.000000000000000020816681711721685132943093776703e-02
2.300000000000000655031584528842358849942684173584e-01,1.103716197278559532635178186410485068336129188538e-02,7.011753049024320449955638423489290289580821990967e-02,1.000000000000000020816681711721685132943093776703e-02
2.400000000000000743849426498854882083833217620850e-01,1.108551695084070316810187506462170858867466449738e-02,7.012589617103041905732396799066918902099132537842e-02,1.000000000000000020816681711721685132943093776703e-02
2.500000000000000555111512312578270211815834045410e-01,1.113414650370864178441365766047965735197067260742e-02,7.013453370802640030046148922338034026324748992920e-02,1.000000000000000020816681711721685132943093776703e-02
2.600000000000000643929354282590793445706367492676e-01,1.118305098260584558300667623598201316781342029572e-02,7.014344317443357845753837409574771299958229064941e-02,1.000000000000000020816681711721685132943093776703e-02
2.700000000000000732747196252603316679596900939941e-01,1.123223074063873887229458858882935601286590099335e-02,7.015262464451522961272900147378095425665378570557e-02,1.000000000000000020816681711721685132943093776703e-02
2.800000000000000821565038222615839913487434387207e-01,1.128168613281089853461747196661235648207366466522e-02,7.016207819359067399123119912474066950380802154541e-02,1.000000000000000020816681711721685132943093776703e-02
2.900000000000000910382880192628363147377967834473e-01,1.133141751603020976058022739607622497715055942535e-02,7.017180389803046036689693210064433515071868896484e-02,1.000000000000000020816681711721685132943093776703e-02
3.000000000000000999200722162640886381268501281738e-01,1.138142524911600270143274826750712236389517784119e-02,7.018180183525143944756052860611816868185997009277e-02,1.000000000000000020816681711721685132943093776703e-02
3.100000000000001088018564132653409615159034729004e-01,1.143170969280618391727966098869728739373385906219e-02,7.019207208371180950479129023733548820018768310547e-02,1.000000000000000020816681711721685132943093776703e-02
3.200000000000001176836406102665932849049568176270e-01,1.148227120976434874333182989403212559409439563751e-02,7.020261472290610649249487096312805078923702239990e-02,1.000000000000000020816681711721685132943093776703e-02
3.300000000000001265654248072678456082940101623535e-01,1.153311016458688498254048226954182609915733337402e-02,7.021342983336005538763657796152983792126178741455e-02,1.000000000000000020816681711721685132943093776703e-02
3.400000000000001354472090042690979316830635070801e-01,1.158422692381006965933742947072460083290934562683e-02,7.022451749662540765317686464186408556997776031494e-02,1.000000000000000020816681711721685132943093776703e-02
3.500000000000001443289932012703502550721168518066e-01,1.163562185591714495669357631868479074910283088684e-02,7.023587779527469543427997678008978255093097686768e-02,1.000000000000000020816681711721685132943093776703e-02
3.600000000000001532107773982716025784611701965332e-01,1.168729533134538201011309865862131118774414062500e-02,7.024751081289594412115917521077790297567844390869e-02,1.000000000000000020816681711721685132943093776703e-02
3.700000000000001620925615952728549018502235412598e-01,1.173924772249314643635109689512319164350628852844e-02,7.025941663408724613404388037452008575201034545898e-02,1.000000000000000020816681711721685132943093776703e-02
3.800000000000001709743457922741072252392768859863e-01,1.179147940372693784127910987535869935527443885803e-02,7.027159534445133470814681686533731408417224884033e-02,1.000000000000000020816681711721685132943093776703e-02
3.900000000000001798561299892753595486283302307129e-01,1.184399075138842238885672486503608524799346923828e-02,7.028404703059003277854088764797779731452465057373e-02,1.000000000000000020816681711721685132943093776703e-02
4.000000000000001887379141862766118720173835754395e-01,1.189678214380146016593275959394304663874208927155e-02,7.029677178009867410946043264630134217441082000732e-02,1.000000000000000020816681711721685132943093776703e-02
4.100000000000001976196983832778641954064369201660e-01,1.194985396127910999564125660299396258778870105743e-02,7.030976968156041340130002481600968167185783386230e-02,1.000000000000000020816681711721685132943093776703e-02
4.200000000000002065014825802791165187954902648926e-01,1.200320658613063425079747759127712924964725971222e-02,7.032304082454048088646203495954978279769420623779e-02,1.000000000000000020816681711721685132943093776703e-02
4.300000000000002153832667772803688421845436096191e-01,1.205684040266848632005913799503105110488831996918e-02,7.033658529958038141405296528319013305008411407471e-02,1.000000000000000020816681711721685132943093776703e-02
4.400000000000002242650509742816211655735969543457e-01,1.211075579721529113519373765939235454425215721130e-02,7.035040319819196863448951262398622930049896240234e-02,1.000000000000000020816681711721685132943093776703e-02
4.500000000000002331468351712828734889626502990723e-01,1.216495315811080835111113174207275733351707458496e-02,7.036449461285151918410463167674606665968894958496e-02,1.000000000000000020816681711721685132943093776703e-02
4.600000000000002420286193682841258123517036437988e-01,1.221943287571889205644914966342184925451874732971e-02,7.037885963699364033629990444751456379890441894531e-02,1.000000000000000020816681711721685132943093776703e-02
4.700000000000002509104035652853781357407569885254e-01,1.227419534243443660637140624203311745077371597290e-02,7.039349836500517765269790970705798827111721038818e-02,1.000000000000000020816681711721685132943093776703e-02
4.800000000000002597921877622866304591298103332520e-01,1.232924095269031378174773294631449971348047256470e-02,7.040841089221901161199212992869433946907520294189e-02,1.000000000000000020816681711721685132943093776703e-02
4.900000000000002686739719592878827825188636779785e-01,1.238457010296429780527027730840927688404917716980e-02,7.042359731490779872764562696829671040177345275879e-02,1.000000000000000020816681711721685132943093776703e-02
5.000000000000002220446049250313080847263336181641e-01,1.244018319178597994922874647727439878508448600769e-02,7.043905773027760164328725522864260710775852203369e-02,1.000000000000000020816681711721685132943093776703e-02
5.100000000000002309263891220325604081153869628906e-01,1.249608061974367273494479491091624367982149124146e-02,7.045479223646146371695664356593624688684940338135e-02,1.000000000000000020816681711721685132943093776703e-02
5.200000000000002398081733190338127315044403076172e-01,1.255226278949130719331250816139800008386373519897e-02,7.047080093251290033862233030959032475948333740234e-02,1.000000000000000020816681711721685132943093776703e-02
5.300000000000002486899575160350650548934936523438e-01,1.260873010575531971699803079900448210537433624268e-02,7.048708391839930698097305139526724815368652343750e-02,1.000000000000000020816681711721685132943093776703e-02
5.400000000000002575717417130363173782825469970703e-01,1.266548297534152156540443456833600066602230072021e-02,7.050364129499531173905779724009335041046142578125e-02,1.000000000000000020816681711721685132943093776703e-02
5.500000000000002664535259100375697016716003417969e-01,1.272252180714197183908353849801642354577779769897e-02,7.052047316407600296983559928776230663061141967773e-02,1.000000000000000020816681711721685132943093776703e-02
5.600000000000002753353101070388220250606536865234e-01,1.277984701214182616801906533510191366076469421387e-02,7.053757962831011529836189311026828363537788391113e-02,1.000000000000000020816681711721685132943093776703e-02
5.700000000000002842170943040400743484497070312500e-01,1.283745900342618886935674993310385616496205329895e-02,7.055496079125311847946022680844180285930633544922e-02,1.000000000000000020816681711721685132943093776703e-02
5.800000000000002930988785010413266718387603759766e-01,1.289535819618694775789968787194084143266081809998e-02,7.057261675734020911487931471128831617534160614014e-02,1.000000000000000020816681711721685132943093776703e-02
5.900000000000003019806626980425789952278137207031e-01,1.295354500772959854826282821704808156937360763550e-02,7.059054763187926073708666763195651583373546600342e-02,1.000000000000000020816681711721685132943093776703e-02
6.000000000000003108624468950438313186168670654297e-01,1.301201985748006578758051432487263809889554977417e-02,7.060875352104363511518414497913909144699573516846e-02,1.000000000000000020816681711721685132943093776703e-02
6.100000000000003197442310920450836420059204101562e-01,1.307078316699151164514969281071898876689374446869e-02,7.062723453186497968303569905401673167943954467773e-02,1.000000000000000020816681711721685132943093776703e-02
6.200000000000003286260152890463359653949737548828e-01,1.312983535995113602845574263255912228487432003021e-02,7.064599077222584455615361775926430709660053253174e-02,1.000000000000000020816681711721685132943093776703e-02
6.300000000000003375077994860475882887840270996094e-01,1.318917686218696455613397233719297219067811965942e-02,7.066502235085232730416038293697056360542774200439e-02,1.000000000000000020816681711721685132943093776703e-02
6.400000000000003463895836830488406121730804443359e-01,1.324880810167462959203721339918047306127846240997e-02,7.068432937730652343422121930416324175894260406494e-02,1.000000000000000020816681711721685132943093776703e-02
6.500000000000003552713678800500929355621337890625e-01,1.330872950854414434040950965254523907788097858429e-02,7.070391196197897687447664338833419606089591979980e-02,1.000000000000000020816681711721685132943093776703e-02
6.600000000000003641531520770513452589511871337891e-01,1.336894151508666826744242683844277053140103816986e-02,7.072377021608097780180912650394020602107048034668e-02,1.000000000000000020816681711721685132943093776703e-02
6.700000000000003730349362740525975823402404785156e-01,1.342944455576125691032007836156481062062084674835e-02,7.074390425163683271403414209999027661979198455811e-02,1.000000000000000020816681711721685132943093776703e-02
6.800000000000003819167204710538499057292938232422e-01,1.349023906720161168626415104654370225034654140472e-02,7.076431418147600960200094277752214111387729644775e-02,1.000000000000000020816681711721685132943093776703e-02
6.900000000000003907985046680551022291183471679688e-01,1.355132548822281408906764710309289512224495410919e-02,7.078500011922515822160306697696796618402004241943e-02,1.000000000000000020816681711721685132943093776703e-02
7.000000000000003996802888650563545525074005126953e-01,1.361270425982805468145819816072616958990693092346e-02,7.080596217930013036578884566552005708217620849609e-02,1.000000000000000020816681711721685132943093776703e-02
7.100000000000004085620730620576068758964538574219e-01,1.367437582521535688329095137305557727813720703125e-02,7.082720047689783360311821525101549923419952392578e-02,1.000000000000000020816681711721685132943093776703e-02
7.200000000000004174438572590588591992855072021484e-01,1.373634062978428167778321977721134317107498645782e-02,7.084871512798804338295610705245053395628929138184e-02,1.000000000000000020816681711721685132943093776703e-02
7.300000000000004263256414560601115226745605468750e-01,1.379859912114263578719608460687595652416348457336e-02,7.087050624930509024057556644038413651287555694580e-02,1.000000000000000020816681711721685132943093776703e-02
7.400000000000004352074256530613638460636138916016e-01,1.386115174911316250128123783724731765687465667725e-02,7.089257395833944985774621727614430710673332214355e-02,1.000000000000000020816681711721685132943093776703e-02
7.500000000000004440892098500626161694526672363281e-01,1.392399896574023250572782473000188474543392658234e-02,7.091491837332929148995930290766409598290920257568e-02,1.000000000000000020816681711721685132943093776703e-02
7.600000000000004529709940470638684928417205810547e-01,1.398714122529651909809800258699397090822458267212e-02,7.093753961325184598241122557737980969250202178955e-02,1.000000000000000020816681711721685132943093776703e-02
7.700000000000004618527782440651208162307739257812e-01,1.405057898428966473014511961991956923156976699829e-02,7.096043779781477378598708583012921735644340515137e-02,1.000000000000000020816681711721685132943093776703e-02
7.800000000000004707345624410663731396198272705078e-01,1.411431270146894755013189381998017779551446437836e-02,7.098361304744739419536614377648220397531986236572e-02,1.000000000000000020816681711721685132943093776703e-02
7.900000000000004796163466380676254630088806152344e-01,1.417834283783193059791383205947568058036267757416e-02,7.100706548329177580924920221150387078523635864258e-02,1.000000000000000020816681711721685132943093776703e-02
8.000000000000004884981308350688777863979339599609e-01,1.424266985663111273474612517020432278513908386230e-02,7.103079522719381311279818191906088031828403472900e-02,1.000000000000000020816681711721685132943093776703e-02
8.100000000000004973799150320701301097869873046875e-01,1.430729422338055875640883130017755320295691490173e-02,7.105480240169415040440981101710349321365356445312e-02,1.000000000000000020816681711721685132943093776703e-02
8.200000000000005062616992290713824331760406494141e-01,1.437221640586253297577901122394905542023479938507e-02,7.107908713001903633355027523066382855176925659180e-02,1.000000000000000020816681711721685132943093776703e-02
8.300000000000005151434834260726347565650939941406e-01,1.443743687413412066233853181529411813244223594666e-02,7.110364953607102578292398220582981593906879425049e-02,1.000000000000000020816681711721685132943093776703e-02
8.400000000000005240252676230738870799541473388672e-01,1.450295610053383733861753768223934457637369632721e-02,7.112848974441968175064232582371914759278297424316e-02,1.000000000000000020816681711721685132943093776703e-02
8.500000000000005329070518200751394033432006835938e-01,1.456877455968823981136139877889945637434720993042e-02,7.115360788029206906557533329760190099477767944336e-02,1.000000000000000020816681711721685132943093776703e-02
8.600000000000005417888360170763917267322540283203e-01,1.463489272851851812073942227243605884723365306854e-02,7.117900406956320646933988882665289565920829772949e-02,1.000000000000000020816681711721685132943093776703e-02
8.700000000000005506706202140776440501213073730469e-01,1.470131108624708922427704038682350073941051959991e-02,7.120467843874643543156111036296351812779903411865e-02,1.000000000000000020816681711721685132943093776703e-02
8.800000000000005595524044110788963735103607177734e-01,1.476803011440417680300019043215797864831984043121e-02,7.123063111498360855389222479061572812497615814209e-02,1.000000000000000020816681711721685132943093776703e-02
8.900000000000005684341886080801486968994140625000e-01,1.483505029683438586340926690354535821825265884399e-02,7.125686222603526409624663529029930941760540008545e-02,1.000000000000000020816681711721685132943093776703e-02
