time,u0,u1,tau
0.000000000000000000000000000000000000000000000000e+00,1.000000000000000020816681711721685132943093776703e-02,7.999999999999998778754672912327805534005165100098e-02,1.000000000000000020816681711721685132943093776703e-02
1.000000000000000020816681711721685132943093776703e-02,1.005295171935850946642876380110465106554329395294e-02,8.000154906544475197360810625468729995191097259521e-02,1.000000000000000020816681711721685132943093776703e-02
2.000000000000000041633363423443370265886187553406e-02,1.010620867877978258653204335359987453557550907135e-02,8.000340501864255937647385508171282708644866943359e-02,1.000000000000000020816681711721685132943093776703e-02
2.999999999999999888977697537484345957636833190918e-02,1.015977128770758318443423462440478033386170864105e-02,8.000556788484479431300400165127939544618129730225e-02,1.000000000000000020816681711721685132943093776703e-02
4.000000000000000083266726846886740531772375106812e-02,1.021363995760795478906501898563874419778585433960e-02,8.000803769045122804115521830681245774030685424805e-02,1.000000000000000020816681711721685132943093776703e-02
5.000000000000000277555756156289135105907917022705e-02,1.026781510197953550811433842682163231074810028076e-02,8.001081446300423172246496505977120250463485717773e-02,1.000000000000000020816681711721685132943093776703e-02
6.000000000000000471844785465691529680043458938599e-02,1.032229713636386402020317376582170254550874233246e-02,8.001389823118296162896001533226808533072471618652e-02,1.000000000000000020816681711721685132943093776703e-02
7.000000000000000666133814775093924254179000854492e-02,1.037708647835566128092565918450418394058942794800e-02,8.001728902479746108333813481294782832264900207520e-02,1.000000000000000020816681711721685132943093776703e-02
8.000000000000000166533453693773481063544750213623e-02,1.043218354761310008582686492673019529320299625397e-02,8.002098687478262362127168216829886659979820251465e-02,1.000000000000000020816681711721685132943093776703e-02
8.999999999999999666933092612453037872910499572754e-02,1.048758876586806075559277218189890845678746700287e-02,8.002499181319214227592340193950803950428962707520e-02,1.000000000000000020816681711721685132943093776703e-02
9.999999999999999167332731531132594682276248931885e-02,1.054330255693635906566463233957620104774832725525e-02,8.002930387319233396237194710920448414981365203857e-02,1.000000000000000020816681711721685132943093776703e-02
1.099999999999999866773237044981215149164199829102e-01,1.059932534672797764530027819773749797604978084564e-02,8.003392308905590835088617041037650778889656066895e-02,1.000000000000000020816681711721685132943093776703e-02
1.199999999999999816813200936849170830100774765015e-01,1.065565756325726094744243965806163032539188861847e-02,8.003884949615563959568476093409117311239242553711e-02,1.000000000000000020816681711721685132943093776703e-02
1.299999999999999766853164828717126511037349700928e-01,1.071229963665311021858705942122469423338770866394e-02,8.004408313095794091918122603601659648120403289795e-02,1.000000000000000020816681711721685132943093776703e-02
1.399999999999999855671006798729649744927883148193e-01,1.076925199916915591724642098370168241672217845917e-02,8.004962403101636980728983417066046968102455139160e-02,1.000000000000000020816681711721685132943093776703e-02
1.499999999999999944488848768742172978818416595459e-01,1.082651508519391451990099284330426598899066448212e-02,8.005547223496507769358032646778156049549579620361e-02,1.000000000000000020816681711721685132943093776703e-02
1.600000000000000033306690738754696212708950042725e-01,1.088408933126093838805736879749019863083958625793e-02,8.006162778251210698776674234977690503001213073730e-02,1.000000000000000020816681711721685132943093776703e-02
1.700000000000000122124532708767219446599483489990e-01,1.094197517605893787973059261275921016931533813477e-02,8.006809071443264647083282170569873414933681488037e-02,1.000000000000000020816681711721685132943093776703e-02
1.800000000000000210942374678779742680490016937256e-01,1.100017306044189999147953074043471133336424827576e-02,8.007486107256218954564275236407411284744739532471e-02,1.000000000000000020816681711721685132943093776703e-02
1.900000000000000299760216648792265914380550384521e-01,1.105868342743919138793096124118164880201220512390e-02,8.008193889978963697640068630789755843579769134521e-02,1.000000000000000020816681711721685132943093776703e-02
2.000000000000000388578058618804789148271083831787e-01,1.111750672226563887989847501103213289752602577209e-02,8.008932424005023309465656211614259518682956695557e-02,1.000000000000000020816681711721685132943093776703e-02
2.100000000000000477395900588817312382161617279053e-01,1.117664339233160643305442505379687645472586154938e-02,8.009701713831848812752411959081655368208885192871e-02,1.000000000000000020816681711721685132943093776703e-02
2.200000000000000566213742558829835616052150726318e-01,1.123609388725305309464364000859859515912830829620e-02,8.010501764060097562580864405390457250177860260010e-02,1.000000000000000020816681711721685132943093776703e-02
2.300000000000000655031584528842358849942684173584e-01,1.129585865886157877713280583975574700161814689636e-02,8.011332579392903274762005594311631284654140472412e-02,1.000000000000000020816681711721685132943093776703e-02
2.400000000000000743849426498854882083833217620850e-01,1.135593816121445442934856373540242202579975128174e-02,8.012194164635140503083476914980565197765827178955e-02,1.000000000000000020816681711721685132943093776703e-02
2.500000000000000555111512312578270211815834045410e-01,1.141633285060464526872170409887985442765057086945e-02,8.013086524692673850989166339786606840789318084717e-02,1.000000000000000020816681711721685132943093776703e-02
2.600000000000000643929354282590793445706367492676e-01,1.147704318557080972740269686482861288823187351227e-02,8.014009664571608571037586443708278238773345947266e-02,1.000000000000000020816681711721685132943093776703e-02
2.700000000000000732747196252603316679596900939941e-01,1.153806962690729839837722181528079090639948844910e-02,8.014963589377517572120979139072005636990070343018e-02,1.000000000000000020816681711721685132943093776703e-02
2.800000000000000821565038222615839913487434387207e-01,1.159941263767413389962346315087415860034525394440e-02,8.015948304314669814463201191756525076925754547119e-02,1.000000000000000020816681711721685132943093776703e-02
2.900000000000000910382880192628363147377967834473e-01,1.166107268320697686048159624760955921374261379242e-02,8.016963814685246214608582704386208206415176391602e-02,1.000000000000000020816681711721685132943093776703e-02
3.000000000000000999200722162640886381268501281738e-01,1.172305023112708149968241855276573915034532546997e-02,8.018010125888544448180539347958983853459358215332e-02,1.000000000000000020816681711721685132943093776703e-02
3.100000000000001088018564132653409615159034729004e-01,1.178534575135124252975860059677870594896376132965e-02,8.019087243420175425967499904800206422805786132812e-02,1.000000000000000020816681711721685132943093776703e-02
3.200000000000001176836406102665932849049568176270e-01,1.184795971610172124477422528343595331534743309021e-02,8.020195172871251443336149122842471115291118621826e-02,1.000000000000000020816681711721685132943093776703e-02
3.300000000000001265654248072678456082940101623535e-01,1.191089259991617160805432718007068615406751632690e-02,8.021333919927561839635643536894349381327629089355e-02,1.000000000000000020816681711721685132943093776703e-02
3.400000000000001354472090042690979316830635070801e-01,1.197414487965754378850924410926381824538111686707e-02,8.022503490368740330929142601235071197152137756348e-02,1.000000000000000020816681711721685132943093776703e-02
3.500000000000001443289932012703502550721168518066e-01,1.203771703452398596223549276373887551017105579376e-02,8.023703890067419852716312789198127575218677520752e-02,1.000000000000000020816681711721685132943093776703e-02
3.600000000000001532107773982716025784611701965332e-01,1.210160954605872182798798064595757750794291496277e-02,8.024935124988384627098270129863522015511989593506e-02,1.000000000000000020816681711721685132943093776703e-02
3.700000000000001620925615952728549018502235412598e-01,1.216582289815993506154612191494379658252000808716e-02,8.026197201187702801039591804510564543306827545166e-02,1.000000000000000020816681711721685132943093776703e-02
3.800000000000001709743457922741072252392768859863e-01,1.223035757709062427978086162738691200502216815948e-02,8.027490124811856309072766180179314687848091125488e-02,1.000000000000000020816681711721685132943093776703e-02
3.900000000000001798561299892753595486283302307129e-01,1.229521407148845973944517595555225852876901626587e-02,8.028813902096855470436054247329593636095523834229e-02,1.000000000000000020816681711721685132943093776703e-02
4.000000000000001887379141862766118720173835754395e-01,1.236039287237562442345328861392772523686289787292e-02,8.030168539367345259538666368825943209230899810791e-02,1.000000000000000020816681711721685132943093776703e-02
4.100000000000001976196983832778641954064369201660e-01,1.242589447316864645354250740183488233014941215515e-02,8.031554043035706025310815903139882721006870269775e-02,1.000000000000000020816681711721685132943093776703e-02
4.200000000000002065014825802791165187954902648926e-01,1.249171936968821589042377695477625820785760879517e-02,8.032970419601132006093280324421357363462448120117e-02,1.000000000000000020816681711721685132943093776703e-02
4.300000000000002153832667772803688421845436096191e-01,1.255786806016900153393223149578261654824018478394e-02,8.034417675648711232305743124015862122178077697754e-02,1.000000000000000020816681711721685132943093776703e-02
4.400000000000002242650509742816211655735969543457e-01,1.262434104526944864121951184188219485804438591003e-02,8.035895817848488775769766334633459337055683135986e-02,1.000000000000000020816681711721685132943093776703e-02
4.500000000000002331468351712828734889626502990723e-01,1.269113882808156623660522654972737655043601989746e-02,8.037404852954521672359078365843743085861206054688e-02,1.000000000000000020816681711721685132943093776703e-02
4.600000000000002420286193682841258123517036437988e-01,1.275826191414071442142841306122136302292346954346e-02,8.038944787803917191304492462222697213292121887207e-02,1.000000000000000020816681711721685132943093776703e-02
4.700000000000002509104035652853781357407569885254e-01,1.282571081143537086721728712745971279218792915344e-02,8.040515629315872492277605942945228889584541320801e-02,1.000000000000000020816681711721685132943093776703e-02
4.800000000000002597921877622866304591298103332520e-01,1.289348603041689210468856430225059739314019680023e-02,8.042117384490689302456445375355542637407779693604e-02,1.000000000000000020816681711721685132943093776703e-02
4.900000000000002686739719592878827825188636779785e-01,1.296158808400926787385287752840667963027954101562e-02,8.043750060408787205812330967091838829219341278076e-02,1.000000000000000020816681711721685132943093776703e-02
5.000000000000002220446049250313080847263336181641e-01,1.303001748761886333105586288638733094558119773865e-02,8.045413664229703054608933143754256889224052429199e-02,1.000000000000000020816681711721685132943093776703e-02
5.100000000000002309263891220325604081153869628906e-01,1.309877475914415084767838948209828231483697891235e-02,8.047108203191076503113521312116063199937343597412e-02,1.000000000000000020816681711721685132943093776703e-02
5.200000000000002398081733190338127315044403076172e-01,1.316786041898543833938983738107708632014691829681e-02,8.048833684607628602414308716106461361050605773926e-02,1.000000000000000020816681711721685132943093776703e-02
5.300000000000002486899575160350650548934936523438e-01,1.323727499005458024816661577460763510316610336304e-02,8.050590115870126517449989478336647152900695800781e-02,1.000000000000000020816681711721685132943093776703e-02
5.400000000000002575717417130363173782825469970703e-01,1.330701899778468678958720516902758390642702579498e-02,8.052377504444335754030248608614783734083175659180e-02,1.000000000000000020816681711721685132943093776703e-02
5.500000000000002664535259100375697016716003417969e-01,1.337709297013982105706286773738611373119056224823e-02,8.054195857869966834741148886678274720907211303711e-02,1.000000000000000020816681711721685132943093776703e-02
5.600000000000002753353101070388220250606536865234e-01,1.344749743762469092189792974068041075952351093292e-02,8.056045183759599770390025241795228794217109680176e-02,1.000000000000000020816681711721685132943093776703e-02
5.700000000000002842170943040400743484497070312500e-01,1.351823293329432532083878015782829606905579566956e-02,8.057925489797607143671598350920248776674270629883e-02,1.000000000000000020816681711721685132943093776703e-02
5.800000000000002930988785010413266718387603759766e-01,1.358929999276374880889939333883376093581318855286e-02,8.059836783739061927267499640947789885103702545166e-02,1.000000000000000020816681711721685132943093776703e-02
5.900000000000003019806626980425789952278137207031e-01,1.366069915421764743856947177391703007742762565613e-02,8.061779073408628648600426913617411628365516662598e-02,1.000000000000000020816681711721685132943093776703e-02
6.000000000000003108624468950438313186168670654297e-01,1.373243095842002249595825702499496401287615299225e-02,8.063752366699450391251957626082003116607666015625e-02,1.000000000000000020816681711721685132943093776703e-02
6.100000000000003197442310920450836420059204101562e-01,1.380449594872384076749138870354727259837090969086e-02,8.065756671572016367477431231236550956964492797852e-02,1.000000000000000020816681711721685132943093776703e-02
6.200000000000003286260152890463359653949737548828e-01,1.387689467108067092881995563402597326785326004028e-02,8.067791996053025327384489173709880560636520385742e-02,1.000000000000000020816681711721685132943093776703e-02
6.300000000000003375077994860475882887840270996094e-01,1.394962767405031646428259506365066044963896274567e-02,8.069858348234228151429903164171264506876468658447e-02,1.000000000000000020816681711721685132943093776703e-02
6.400000000000003463895836830488406121730804443359e-01,1.402269550881044338219716394178249174728989601135e-02,8.071955736271264891801280327854328788816928863525e-02,1.000000000000000020816681711721685132943093776703e-02
6.500000000000003552713678800500929355621337890625e-01,1.409609872916619405236460238484141882508993148804e-02,8.074084168382485160453398975732852704823017120361e-02,1.000000000000000020816681711721685132943093776703e-02
6.600000000000003641531520770513452589511871337891e-01,1.416983789155979410467889323399504064582288265228e-02,8.076243652847758802693078905576840043067932128906e-02,1.000000000000000020816681711721685132943093776703e-02
6.700000000000003730349362740525975823402404785156e-01,1.424391355508015412356659368242617347277700901031e-02,8.078434198007271305197463107106159441173076629639e-02,1.000000000000000020816681711721685132943093776703e-02
6.800000000000003819167204710538499057292938232422e-01,1.431832628147246787297941494898623204790055751801e-02,8.080655812260308101802053215578780509531497955322e-02,1.000000000000000020816681711721685132943093776703e-02
6.900000000000003907985046680551022291183471679688e-01,1.439307663514779490887551816058476106263697147369e-02,8.082908504064026389279717932367930188775062561035e-02,1.000000000000000020816681711721685132943093776703e-02
7.000000000000003996802888650563545525074005126953e-01,1.446816518319263798753038230415768339298665523529e-02,8.085192281932211677553112849636818282306194305420e-02,1.000000000000000020816681711721685132943093776703e-02
7.100000000000004085620730620576068758964538574219e-01,1.454359249537851700440072022502135951071977615356e-02,8.087507154434026013234415586339309811592102050781e-02,1.000000000000000020816681711721685132943093776703e-02
7.200000000000004174438572590588591992855072021484e-01,1.461935914417153425937101474119117483496665954590e-02,8.089853130192738162040910765426815487444400787354e-02,1.000000000000000020816681711721685132943093776703e-02
7.300000000000004263256414560601115226745605468750e-01,1.469546570474193104838267487366465502418577671051e-02,8.092230217884439913422767176598426885902881622314e-02,1.000000000000000020816681711721685132943093776703e-02
7.400000000000004352074256530613638460636138916016e-01,1.477191275497363731616928816947620362043380737305e-02,8.094638426236756834075691813268349505960941314697e-02,1.000000000000000020816681711721685132943093776703e-02
7.500000000000004440892098500626161694526672363281e-01,1.484870087547381263537449314071636763401329517365e-02,8.097077764027536816993091406402527354657649993896e-02,1.000000000000000020816681711721685132943093776703e-02
7.600000000000004529709940470638684928417205810547e-01,1.492583064958238892039332768035819754004478454590e-02,8.099548240083528916066768488235538825392723083496e-02,1.000000000000000020816681711721685132943093776703e-02
7.700000000000004618527782440651208162307739257812e-01,1.500330266338159405925534173320556874386966228485e-02,8.102049863279049690678590422976412810385227203369e-02,1.000000000000000020816681711721685132943093776703e-02
7.800000000000004707345624410663731396198272705078e-01,1.508111750570547554550770996684150304645299911499e-02,8.104582642534632896946789060166338458657264709473e-02,1.000000000000000020816681711721685132943093776703e-02
7.900000000000004796163466380676254630088806152344e-01,1.515927576814941717120444053534811246208846569061e-02,8.107146586815666688963233355025295168161392211914e-02,1.000000000000000020816681711721685132943093776703e-02
8.000000000000004884981308350688777863979339599609e-01,1.523777804507964704627820395899107097648084163666e-02,8.109741705131018330021674955787602812051773071289e-02,1.000000000000000020816681711721685132943093776703e-02
8.100000000000004973799150320701301097869873046875e-01,1.531662493364274041374173407348280306905508041382e-02,8.112368006531643638279405195135041140019893646240e-02,1.000000000000000020816681711721685132943093776703e-02
8.200000000000005062616992290713824331760406494141e-01,1.539581703377511379127184909521020017564296722412e-02,8.115025500109179779073542704281862825155258178711e-02,1.000000000000000020816681711721685132943093776703e-02
8.300000000000005151434834260726347565650939941406e-01,1.547535494821251564334652073284814832732081413269e-02,8.117714194994526955007074775494402274489402770996e-02,1.000000000000000020816681711721685132943093776703e-02
8.400000000000005240252676230738870799541473388672e-01,1.555523928249950664504108743813048931770026683807e-02,8.120434100356417606025871691599604673683643341064e-02,1.000000000000000020816681711721685132943093776703e-02
8.500000000000005329070518200751394033432006835938e-01,1.563547064499893474165403972619969863444566726685e-02,8.123185225399964792813989333808422088623046875000e-02,1.000000000000000020816681711721685132943093776703e-02
8.600000000000005417888360170763917267322540283203e-01,1.571604964690140673888585354234237456694245338440e-02,8.125967579365202253516287100865156389772891998291e-02,1.000000000000000020816681711721685132943093776703e-02
8.700000000000005506706202140776440501213073730469e-01,1.579697690223474948467696776788216084241867065430e-02,8.128781171525605031558114887957344762980937957764e-02,1.000000000000000020816681711721685132943093776703e-02
8.800000000000005595524044110788963735103607177734e-01,1.587825302787346237742838184203719720244407653809e-02,8.131626011186599001234753814060240983963012695312e-02,1.000000000000000020816681711721685132943093776703e-02
8.900000000000005684341886080801486968994140625000e-01,1.595987864354816640477530143016338115558028221130e-02,8.134502107684052352176706790487514808773994445801e-02,1.000000000000000020816681711721685132943093776703e-02
