time,u0,u1,tau
0.000000000000000000000000000000000000000000000000e+00,1.000000000000000020816681711721685132943093776703e-02,-1.000000000000000888178419700125232338905334472656e-02,1.000000000000000020816681711721685132943093776703e-02
1.000000000000000020816681711721685132943093776703e-02,9.995901266393478201699451801687246188521385192871e-03,-9.996098729463796794814101076553924940526485443115e-03,1.000000000000000020816681711721685132943093776703e-02
2.000000000000000041633363423443370265886187553406e-02,9.991766710678959273472798940929351374506950378418e-03,-9.992236472552637471800096591323381289839744567871e-03,1.000000000000000020816681711721685132943093776703e-02
2.999999999999999888977697537484345957636833190918e-02,9.987596346083057671783045350366592174395918846130e-03,-9.988413214313833846103030111862608464434742927551e-03,1.000000000000000020816681711721685132943093776703e-02
4.000000000000000083266726846886740531772375106812e-02,9.983390185634304775375014173732779454439878463745e-03,-9.984628939995077168134685052791610360145568847656e-03,1.000000000000000020816681711721685132943093776703e-02
5.000000000000000277555756156289135105907917022705e-02,9.979148242162935722454619735799496993422508239746e-03,-9.980883635044658641621850847513996995985507965088e-03,1.000000000000000020816681711721685132943093776703e-02
6.000000000000000471844785465691529680043458938599e-02,9.974870528300670835530894464682205580174922943115e-03,-9.977177285111677590423440165068313945084810256958e-03,1.000000000000000020816681711721685132943093776703e-02
7.000000000000000666133814775093924254179000854492e-02,9.970557056480503985151919721374724758788943290710e-03,-9.973509876046246155900654173365182941779494285583e-03,1.000000000000000020816681711721685132943093776703e-02
8.000000000000000166533453693773481063544750213623e-02,9.966207838936496157811184559704997809603810310364e-03,-9.969881393899685320669767918388970429077744483948e-03,1.000000000000000020816681711721685132943093776703e-02
8.999999999999999666933092612453037872910499572754e-02,9.961822887703569023853944486290856730192899703979e-03,-9.966291824924729605972295587434928165748715400696e-03,1.000000000000000020816681711721685132943093776703e-02
9.999999999999999167332731531132594682276248931885e-02,9.957402214617308913724436081338353687897324562073e-03,-9.962741155575710952363444050661200890317559242249e-03,1.000000000000000020816681711721685132943093776703e-02
1.099999999999999866773237044981215149164199829102e-01,9.952945831313763855319187712211714824661612510681e-03,-9.959229372508756478188374217097589280456304550171e-03,1.000000000000000020816681711721685132943093776703e-02
1.199999999999999816813200936849170830100774765015e-01,9.948453749229256223851614038267143769189715385437e-03,-9.955756462581965421376750668969179969280958175659e-03,1.000000000000000020816681711721685132943093776703e-02
1.299999999999999766853164828717126511037349700928e-01,9.943925979600195391716610515686625149101018905640e-03,-9.952322412855598224301623133669636445119976997375e-03,1.000000000000000020816681711721685132943093776703e-02
1.399999999999999855671006798729649744927883148193e-01,9.939362533462885174184719971890444867312908172607e-03,-9.948927210592248271403548187663545832037925720215e-03,1.000000000000000020816681711721685132943093776703e-02
1.499999999999999944488848768742172978818416595459e-01,9.934763421653352091778010901634843321517109870911e-03,-9.945570843257018830985138890810048906132578849792e-03,1.000000000000000020816681711721685132943093776703e-02
1.600000000000000033306690738754696212708950042725e-01,9.930128654807159754858147948652913328260183334351e-03,-9.942253298517693058111710513458092464134097099304e-03,1.000000000000000020816681711721685132943093776703e-02
1.700000000000000122124532708767219446599483489990e-01,9.925458243359238860725746178559347754344344139099e-03,-9.938974564244898793341498333120398456230759620667e-03,1.000000000000000020816681711721685132943093776703e-02
1.800000000000000210942374678779742680490016937256e-01,9.920752197543720660166677305369375972077250480652e-03,-9.935734628512271626732399454340338706970214843750e-03,1.000000000000000020816681711721685132943093776703e-02
1.900000000000000299760216648792265914380550384521e-01,9.916010527393765219827947987596417078748345375061e-03,-9.932533479596614492401762674944620812311768531799e-03,1.000000000000000020816681711721685132943093776703e-02
2.000000000000000388578058618804789148271083831787e-01,9.911233242741400092934433985192299587652087211609e-03,-9.929371105978053793639226398681785212829709053040e-03,1.000000000000000020816681711721685132943093776703e-02
2.100000000000000477395900588817312382161617279053e-01,9.906420353217365928899518223715858766809105873108e-03,-9.926247496340185119678700687018135795369744300842e-03,1.000000000000000020816681711721685132943093776703e-02
2.200000000000000566213742558829835616052150726318e-01,9.901571868250956878765300928080250741913914680481e-03,-9.923162639570229370811205171776236966252326965332e-03,1.000000000000000020816681711721685132943093776703e-02
2.300000000000000655031584528842358849942684173584e-01,9.896687797069871408983665617142833070829510688782e-03,-9.920116524759168066815995246088277781382203102112e-03,1.000000000000000020816681711721685132943093776703e-02
2.400000000000000743849426498854882083833217620850e-01,9.891768148700068319367773028716328553855419158936e-03,-9.917109141201889063732544116192002547904849052429e-03,1.000000000000000020816681711721685132943093776703e-02
2.500000000000000555111512312578270211815834045410e-01,9.886812931965615822149651137351611396297812461853e-03,-9.914140478397321862291668992384074954316020011902e-03,1.000000000000000020816681711721685132943093776703e-02
2.600000000000000643929354282590793445706367492676e-01,9.881822155488557968272544940191437490284442901611e-03,-9.911210526048565977452753372745064552873373031616e-03,1.000000000000000020816681711721685132943093776703e-02
2.700000000000000732747196252603316679596900939941e-01,9.876795827688777604236314289209985872730612754822e-03,-9.908319274063026246834873234092810889706015586853e-03,1.000000000000000020816681711721685132943093776703e-02
2.800000000000000821565038222615839913487434387207e-01,9.871733956783862798389783677066589007154107093811e-03,-9.905466712552534261360115408479032339528203010559e-03,1.000000000000000020816681711721685132943093776703e-02
2.900000000000000910382880192628363147377967834473e-01,9.866636550788976736670043976573651889339089393616e-03,-9.902652831833468061173419982878840528428554534912e-03,1.000000000000000020816681711721685132943093776703e-02
3.000000000000000999200722162640886381268501281738e-01,9.861503617516736291959134064200043212622404098511e-03,-9.899877622426873566285898675687349168583750724792e-03,1.000000000000000020816681711721685132943093776703e-02
3.100000000000001088018564132653409615159034729004e-01,9.856335164577088858717246466767392121255397796631e-03,-9.897141075058577333600773329180810833349823951721e-03,1.000000000000000020816681711721685132943093776703e-02
3.200000000000001176836406102665932849049568176270e-01,9.851131199377194391786360938567668199539184570312e-03,-9.894443180659295844492362448363564908504486083984e-03,1.000000000000000020816681711721685132943093776703e-02
3.300000000000001265654248072678456082940101623535e-01,9.845891729121312649364305968902044696733355522156e-03,-9.891783930364739588214639809393702307716012001038e-03,1.000000000000000020816681711721685132943093776703e-02
3.400000000000001354472090042690979316830635070801e-01,9.840616760810692170702296266426856163889169692993e-03,-9.889163315515722349480220998430013423785567283630e-03,1.000000000000000020816681711721685132943093776703e-02
3.500000000000001443289932012703502550721168518066e-01,9.835306301243467927419850127535028150305151939392e-03,-9.886581327658254883528066159215086372569203376770e-03,1.000000000000000020816681711721685132943093776703e-02
3.600000000000001532107773982716025784611701965332e-01,9.829960357014552035925802897509129252284765243530e-03,-9.884037958543640325914658717465499648824334144592e-03,1.000000000000000020816681711721685132943093776703e-02
3.700000000000001620925615952728549018502235412598e-01,9.824578934515540082350604222938272869214415550232e-03,-9.881533200128571337028660082069109193980693817139e-03,1.000000000000000020816681711721685132943093776703e-02
3.800000000000001709743457922741072252392768859863e-01,9.819162039934613978031663350520830135792493820190e-03,-9.879067044575209899370804578211391344666481018066e-03,1.000000000000000020816681711721685132943093776703e-02
3.900000000000001798561299892753595486283302307129e-01,9.813709679256451753892598333095520501956343650818e-03,-9.876639484251277523174650241344352252781391143799e-03,1.000000000000000020816681711721685132943093776703e-02
4.000000000000001887379141862766118720173835754395e-01,9.808221858262135620099009258865407900884747505188e-03,-9.874250511730133308962997773505776422098278999329e-03,1.000000000000000020816681711721685132943093776703e-02
4.100000000000001976196983832778641954064369201660e-01,9.802698582529072168778583318271557800471782684326e-03,-9.871900119790853744827785476445569656789302825928e-03,1.000000000000000020816681711721685132943093776703e-02
4.200000000000002065014825802791165187954902648926e-01,9.797139857430910842017723894059599842876195907593e-03,-9.869588301418300360645652347102441126480698585510e-03,1.000000000000000020816681711721685132943093776703e-02
4.300000000000002153832667772803688421845436096191e-01,9.791545688137465869305131604960479307919740676880e-03,-9.867315049803192586463929103501868667080998420715e-03,1.000000000000000020816681711721685132943093776703e-02
4.400000000000002242650509742816211655735969543457e-01,9.785916079614646878592765233406680636107921600342e-03,-9.865080358342175406716201280232780845835804939270e-03,1.000000000000000020816681711721685132943093776703e-02
4.500000000000002331468351712828734889626502990723e-01,9.780251036624384303186374722827167715877294540405e-03,-9.862884220637876606097016463081672554835677146912e-03,1.000000000000000020816681711721685132943093776703e-02
4.600000000000002420286193682841258123517036437988e-01,9.774550563724565196976890035784890642389655113220e-03,-9.860726630498969219607019454088003840297460556030e-03,1.000000000000000020816681711721685132943093776703e-02
4.700000000000002509104035652853781357407569885254e-01,9.768814665268974253842237942535575712099671363831e-03,-9.858607581940223574257231575757032260298728942871e-03,1.000000000000000020816681711721685132943093776703e-02
4.800000000000002597921877622866304591298103332520e-01,9.763043345407234827049158809586515417322516441345e-03,-9.856527069182559330773329975272645242512226104736e-03,1.000000000000000020816681711721685132943093776703e-02
4.900000000000002686739719592878827825188636779785e-01,9.757236608084748213931547411448264028877019882202e-03,-9.854485086653092321129498998288909206166863441467e-03,1.000000000000000020816681711721685132943093776703e-02
5.000000000000002220446049250313080847263336181641e-01,9.751394457042652022527029487264371709898114204407e-03,-9.852481628985177916635329609107429860159754753113e-03,1.000000000000000020816681711721685132943093776703e-02
5.100000000000002309263891220325604081153869628906e-01,9.745516895817764660425730482984363334253430366516e-03,-9.850516691018452661299242834047618089243769645691e-03,1.000000000000000020816681711721685132943093776703e-02
5.200000000000002398081733190338127315044403076172e-01,9.739603927742547170853804061607661424204707145691e-03,-9.848590267798868966298009297588578192517161369324e-03,1.000000000000000020816681711721685132943093776703e-02
5.300000000000002486899575160350650548934936523438e-01,9.733655555945059864586532683006225852295756340027e-03,-9.846702354578726334999316804896807298064231872559e-03,1.000000000000000020816681711721685132943093776703e-02
5.400000000000002575717417130363173782825469970703e-01,9.727671783348929360202284044589760014787316322327e-03,-9.844852946816700853260861947546800365671515464783e-03,1.000000000000000020816681711721685132943093776703e-02
5.500000000000002664535259100375697016716003417969e-01,9.721652612673312154889515568356728181242942810059e-03,-9.843042040177871210282489755627466365694999694824e-03,1.000000000000000020816681711721685132943093776703e-02
5.600000000000002753353101070388220250606536865234e-01,9.715598046432870338318110725595033727586269378662e-03,-9.841269630533739515287905419427261222153902053833e-03,1.000000000000000020816681711721685132943093776703e-02
5.700000000000002842170943040400743484497070312500e-01,9.709508086937742102340287431161414133384823799133e-03,-9.839535713962250379482910034312226343899965286255e-03,1.000000000000000020816681711721685132943093776703e-02
5.800000000000002930988785010413266718387603759766e-01,9.703382736293520924308886321796308038756251335144e-03,-9.837840286747799589672780484761460684239864349365e-03,1.000000000000000020816681711721685132943093776703e-02
5.900000000000003019806626980425789952278137207031e-01,9.697221996401239954566086964860005537047982215881e-03,-9.836183345381251455497029212438064860180020332336e-03,1.000000000000000020816681711721685132943093776703e-02
6.000000000000003108624468950438313186168670654297e-01,9.691025868957358138655600043875892879441380500793e-03,-9.834564886559940544152880192996235564351081848145e-03,1.000000000000000020816681711721685132943093776703e-02
6.100000000000003197442310920450836420059204101562e-01,9.684794355453746339534859544073697179555892944336e-03,-9.832984907187675149842220889695454388856887817383e-03,1.000000000000000020816681711721685132943093776703e-02
6.200000000000003286260152890463359653949737548828e-01,9.678527457177682133404594821968203177675604820251e-03,-9.831443404374737293771602253400487825274467468262e-03,1.000000000000000020816681711721685132943093776703e-02
6.300000000000003375077994860475882887840270996094e-01,9.672225175211846340261878651745064416900277137756e-03,-9.829940375437879254705286768967198440805077552795e-03,1.000000000000000020816681711721685132943093776703e-02
6.400000000000003463895836830488406121730804443359e-01,9.665887510434328228070555155682086478918790817261e-03,-9.828475817900311425900916617592883994802832603455e-03,1.000000000000000020816681711721685132943093776703e-02
6.500000000000003552713678800500929355621337890625e-01,9.659514463518622043314287850535038160160183906555e-03,-9.827049729491693641492133792780805379152297973633e-03,1.000000000000000020816681711721685132943093776703e-02
6.600000000000003641531520770513452589511871337891e-01,9.653106034933639154060891485187312355265021324158e-03,-9.825662108148119563977296309076336910948157310486e-03,1.000000000000000020816681711721685132943093776703e-02
6.700000000000003730349362740525975823402404785156e-01,9.646662224943721927750139855106681352481245994568e-03,-9.824312952012092398090814526767644565552473068237e-03,1.000000000000000020816681711721685132943093776703e-02
6.800000000000003819167204710538499057292938232422e-01,9.640183033608654139534621663187863305211067199707e-03,-9.823002259432507543568391383814741857349872589111e-03,1.000000000000000020816681711721685132943093776703e-02
6.900000000000003907985046680551022291183471679688e-01,9.633668460783683523684928218244749587029218673706e-03,-9.821730028964623104847930790128884837031364440918e-03,1.000000000000000020816681711721685132943093776703e-02
7.000000000000003996802888650563545525074005126953e-01,9.627118506119544324994841133502632146701216697693e-03,-9.820496259370026931323494068237778265029191970825e-03,1.000000000000000020816681711721685132943093776703e-02
7.100000000000004085620730620576068758964538574219e-01,9.620533169062479850186520025090430863201618194580e-03,-9.819300949616607127046208347564970608800649642944e-03,1.000000000000000020816681711721685132943093776703e-02
7.200000000000004174438572590588591992855072021484e-01,9.613912448854278897103498024989676196128129959106e-03,-9.818144098878510417360843121059588156640529632568e-03,1.000000000000000020816681711721685132943093776703e-02
7.300000000000004263256414560601115226745605468750e-01,9.607256344532305245009773386755114188417792320251e-03,-9.817025706536098780818910825018974719569087028503e-03,1.000000000000000020816681711721685132943093776703e-02
7.400000000000004352074256530613638460636138916016e-01,9.600564854929537553229756952077877940610051155090e-03,-9.815945772175907815815243395718425745144486427307e-03,1.000000000000000020816681711721685132943093776703e-02
7.500000000000004440892098500626161694526672363281e-01,9.593837978674609259788219617348659085109829902649e-03,-9.814904295590594698883712965198355959728360176086e-03,1.000000000000000020816681711721685132943093776703e-02
7.600000000000004529709940470638684928417205810547e-01,9.587075714191851949497191753835068084299564361572e-03,-9.813901276778884408269476580244372598826885223389e-03,1.000000000000000020816681711721685132943093776703e-02
7.700000000000004618527782440651208162307739257812e-01,9.580278059701350865107194465508655412122607231140e-03,-9.812936715945515947501220921367348637431859970093e-03,1.000000000000000020816681711721685132943093776703e-02
7.800000000000004707345624410663731396198272705078e-01,9.573445013218988275394139009222271852195262908936e-03,-9.812010613501176425899075184133835136890411376953e-03,1.000000000000000020816681711721685132943093776703e-02
7.900000000000004796163466380676254630088806152344e-01,9.566576572556507659927937936572561739012598991394e-03,-9.811122970062442077976427867724851239472627639771e-03,1.000000000000000020816681711721685132943093776703e-02
8.000000000000004884981308350688777863979339599609e-01,9.559672735321569220223736351726984139531850814819e-03,-9.810273786451705405053935749037918867543339729309e-03,1.000000000000000020816681711721685132943093776703e-02
8.100000000000004973799150320701301097869873046875e-01,9.552733498917814064510523053286306094378232955933e-03,-9.809463063697107521043960787210380658507347106934e-03,1.000000000000000020816681711721685132943093776703e-02
8.200000000000005062616992290713824331760406494141e-01,9.545758860544933596670169606568379094824194908142e-03,-9.808690803032456620447199213685962604358792304993e-03,1.000000000000000020816681711721685132943093776703e-02
8.300000000000005151434834260726347565650939941406e-01,9.538748817198738905176469415891915559768676757812e-03,-9.807957005897153385243214529509714338928461074829e-03,1.000000000000000020816681711721685132943093776703e-02
8.400000000000005240252676230738870799541473388672e-01,9.531703365671235356204604727281548548489809036255e-03,-9.807261673936105983440114641780382953584194183350e-03,1.000000000000000020816681711721685132943093776703e-02
8.500000000000005329070518200751394033432006835938e-01,9.524622502550705860357993515208363533020019531250e-03,-9.806604808999639863453801069681503577157855033875e-03,1.000000000000000020816681711721685132943093776703e-02
8.600000000000005417888360170763917267322540283203e-01,9.517506224221785465777756485294958110898733139038e-03,-9.805986413143411017934170104126678779721260070801e-03,1.000000000000000020816681711721685132943093776703e-02
8.700000000000005506706202140776440501213073730469e-01,9.510354526865556767933895798705634661018848419189e-03,-9.805406488628310573973934083369385916739702224731e-03,1.000000000000000020816681711721685132943093776703e-02
8.800000000000005595524044110788963735103607177734e-01,9.503167406459631441628665982079837704077363014221e-03,-9.804865037920360709700062784577312413603067398071e-03,1.000000000000000020816681711721685132943093776703e-02
8.900000000000005684341886080801486968994140625000e-01,9.495944858778250854958180582343629794195294380188e-03,-9.804362063690617509759128722635068697854876518250e-03,1.000000000000000020816681711721685132943093776703e-02
