time,u0,u1,tau
0.000000000000000000000000000000000000000000000000e+00,7.000000000000000666133814775093924254179000854492e-02,9.999999999999995003996389186795568093657493591309e-03,1.000000000000000020816681711721685132943093776703e-02
1.000000000000000020816681711721685132943093776703e-02,7.000601881894362443770063464398845098912715911865e-02,1.001401841760780377088568826593473204411566257477e-02,1.000000000000000020816681711721685132943093776703e-02
2.000000000000000041633363423443370265886187553406e-02,7.001208407914499831647958671965170651674270629883e-02,1.002807249722858368157218933447438757866621017456e-02,1.000000000000000020816681711721685132943093776703e-02
2.999999999999999888977697537484345957636833190918e-02,7.001819591147417920495854559703730046749114990234e-02,1.004216233133396404819670522101660026237368583679e-02,1.000000000000000020816681711721685132943093776703e-02
4.000000000000000083266726846886740531772375106812e-02,7.002435444705011613475420517715974710881710052490e-02,1.005628801250603443495634792270720936357975006104e-02,1.000000000000000020816681711721685132943093776703e-02
5.000000000000000277555756156289135105907917022705e-02,7.003055981724096157314818356098840013146400451660e-02,1.007044963343711220515874771308517665602266788483e-02,1.000000000000000020816681711721685132943093776703e-02
6.000000000000000471844785465691529680043458938599e-02,7.003681215366434897884317933858255855739116668701e-02,1.008464728692950139465889236589646316133439540863e-02,1.000000000000000020816681711721685132943093776703e-02
7.000000000000000666133814775093924254179000854492e-02,7.004311158818767035771912787822657264769077301025e-02,1.009888106589524464640206247167952824383974075317e-02,1.000000000000000020816681711721685132943093776703e-02
8.000000000000000166533453693773481063544750213623e-02,7.004945825292839545195278105893521569669246673584e-02,1.011315106335587167551981480073663988150656223297e-02,1.000000000000000020816681711721685132943093776703e-02
8.999999999999999666933092612453037872910499572754e-02,7.005585228025430766241044011621852405369281768799e-02,1.012745737244213732608510980526261846534907817841e-02,1.000000000000000020816681711721685132943093776703e-02
9.999999999999999167332731531132594682276248931885e-02,7.006229380278382323776753537458716891705989837646e-02,1.014180008639375789314396314466648618690669536591e-02,1.000000000000000020816681711721685132943093776703e-02
1.099999999999999866773237044981215149164199829102e-01,7.006878295338622719690135909331729635596275329590e-02,1.015617929855913530168276537324345554225146770477e-02,1.000000000000000020816681711721685132943093776703e-02
1.199999999999999816813200936849170830100774765015e-01,7.007531986518196476243502957004238851368427276611e-02,1.017059510239507608142517369742563460022211074829e-02,1.000000000000000020816681711721685132943093776703e-02
1.299999999999999766853164828717126511037349700928e-01,7.008190467154289116091803180097485892474651336670e-02,1.018504759146650513745857580261144903488457202911e-02,1.000000000000000020816681711721685132943093776703e-02
1.399999999999999855671006798729649744927883148193e-01,7.008853750609252142300675814112764783203601837158e-02,1.019953685944617258196664977276668651029467582703e-02,1.000000000000000020816681711721685132943093776703e-02
1.499999999999999944488848768742172978818416595459e-01,7.009521850270630793922066459344932809472084045410e-02,1.021406300011435015762106814918297459371387958527e-02,1.000000000000000020816681711721685132943093776703e-02
1.600000000000000033306690738754696212708950042725e-01,7.010194779551189026012281146904570050537586212158e-02,1.022862610735852592624972601242916425690054893494e-02,1.000000000000000020816681711721685132943093776703e-02
1.700000000000000122124532708767219446599483489990e-01,7.010872551888931714092478841848787851631641387939e-02,1.024322627517308334499368527303886367008090019226e-02,1.000000000000000020816681711721685132943093776703e-02
1.800000000000000210942374678779742680490016937256e-01,7.011555180747129634166725509203388355672359466553e-02,1.025786359765898554663454689261925523169338703156e-02,1.000000000000000020816681711721685132943093776703e-02
1.900000000000000299760216648792265914380550384521e-01,7.012242679614343054961267398539348505437374114990e-02,1.027253816902344053796358736008187406696379184723e-02,1.000000000000000020816681711721685132943093776703e-02
2.000000000000000388578058618804789148271083831787e-01,7.012935062004446717942585109994979575276374816895e-02,1.028725008357956813287437114468048093840479850769e-02,1.000000000000000020816681711721685132943093776703e-02
2.100000000000000477395900588817312382161617279053e-01,7.013632341456650653999105315961060114204883575439e-02,1.030199943574605300766755533459217986091971397400e-02,1.000000000000000020816681711721685132943093776703e-02
2.200000000000000566213742558829835616052150726318e-01,7.014334531535522387901693264211644418537616729736e-02,1.031678632004679428690874232188434689305722713470e-02,1.000000000000000020816681711721685132943093776703e-02
2.300000000000000655031584528842358849942684173584e-01,7.015041645831010530542926062480546534061431884766e-02,1.033161083111054819039242858025318128056824207306e-02,1.000000000000000020816681711721685132943093776703e-02
2.400000000000000743849426498854882083833217620850e-01,7.015753697958462820061242837255122140049934387207e-02,1.034647306367055680231814562830550130456686019897e-02,1.000000000000000020816681711721685132943093776703e-02
2.500000000000000555111512312578270211815834045410e-01,7.016470701558649714080218018352752551436424255371e-02,1.036137311256418204463702892326182336546480655670e-02,1.000000000000000020816681711721685132943093776703e-02
2.600000000000000643929354282590793445706367492676e-01,7.017192670297785206390273060605977661907672882080e-02,1.037631107273251883371667503297430812381207942963e-02,1.000000000000000020816681711721685132943093776703e-02
2.700000000000000732747196252603316679596900939941e-01,7.017919617867543480294045821210602298378944396973e-02,1.039128703922000823700599880794470664113759994507e-02,1.000000000000000020816681711721685132943093776703e-02
2.800000000000000821565038222615839913487434387207e-01,7.018651557985082500845663844302180223166942596436e-02,1.040630110717404022135923469249974004924297332764e-02,1.000000000000000020816681711721685132943093776703e-02
2.900000000000000910382880192628363147377967834473e-01,7.019388504393057892638552175412769429385662078857e-02,1.042135337184455119718951010554519598372280597687e-02,1.000000000000000020816681711721685132943093776703e-02
3.000000000000000999200722162640886381268501281738e-01,7.020130470859647919823487427493091672658920288086e-02,1.043644392858360941955808698367036413401365280151e-02,1.000000000000000020816681711721685132943093776703e-02
3.100000000000001088018564132653409615159034729004e-01,7.020877471178564588338844032477936707437038421631e-02,1.045157287284500212398707930105956620536744594574e-02,1.000000000000000020816681711721685132943093776703e-02
3.200000000000001176836406102665932849049568176270e-01,7.021629519169074462592305962971295230090618133545e-02,1.046674030018380184559045886771855293773114681244e-02,1.000000000000000020816681711721685132943093776703e-02
3.300000000000001265654248072678456082940101623535e-01,7.022386628676018094363797672485816292464733123779e-02,1.048194630625593273820506112770090112462639808655e-02,1.000000000000000020816681711721685132943093776703e-02
3.400000000000001354472090042690979316830635070801e-01,7.023148813569819737256949565562536008656024932861e-02,1.049719098681772821990421107329893857240676879883e-02,1.000000000000000020816681711721685132943093776703e-02
3.500000000000001443289932012703502550721168518066e-01,7.023916087746509551159590500901686027646064758301e-02,1.051247443772548167961744525200629141181707382202e-02,1.000000000000000020816681711721685132943093776703e-02
3.600000000000001532107773982716025784611701965332e-01,7.024688465127734704473994042928097769618034362793e-02,1.052779675493498677540937791263786493800580501556e-02,1.000000000000000020816681711721685132943093776703e-02
3.700000000000001620925615952728549018502235412598e-01,7.025465959660778803019809402030659839510917663574e-02,1.054315803450106905914118726741435239091515541077e-02,1.000000000000000020816681711721685132943093776703e-02
3.800000000000001709743457922741072252392768859863e-01,7.026248585318570216706746123236371204257011413574e-02,1.055855837257711413168514980043255491182208061218e-02,1.000000000000000020816681711721685132943093776703e-02
3.900000000000001798561299892753595486283302307129e-01,7.027036356099700120658724245004123076796531677246e-02,1.057399786541457845090441480806475738063454627991e-02,1.000000000000000020816681711721685132943093776703e-02
4.000000000000001887379141862766118720173835754395e-01,7.027829286028436373001682113681454211473464965820e-02,1.058947660936250534380320686977938748896121978760e-02,1.000000000000000020816681711721685132943093776703e-02
4.100000000000001976196983832778641954064369201660e-01,7.028627389154731841536261072178604081273078918457e-02,1.060499470086702193671879257408363628201186656952e-02,1.000000000000000020816681711721685132943093776703e-02
4.200000000000002065014825802791165187954902648926e-01,7.029430679554241057083174837316619232296943664551e-02,1.062055223647083088134301931404479546472430229187e-02,1.000000000000000020816681711721685132943093776703e-02
4.300000000000002153832667772803688421845436096191e-01,7.030239171328328540155894188501406461000442504883e-02,1.063614931281269514184995017558321706019341945648e-02,1.000000000000000020816681711721685132943093776703e-02
4.400000000000002242650509742816211655735969543457e-01,7.031052878604082678748454782180488109588623046875e-02,1.065178602662691237368264296492270659655332565308e-02,1.000000000000000020816681711721685132943093776703e-02
4.500000000000002331468351712828734889626502990723e-01,7.031871815534325442786922621962730772793292999268e-02,1.066746247474278236344602532881253864616155624390e-02,1.000000000000000020816681711721685132943093776703e-02
4.600000000000002420286193682841258123517036437988e-01,7.032695996297619323023297965846722945570945739746e-02,1.068317875408406752990586596752109471708536148071e-02,1.000000000000000020816681711721685132943093776703e-02
4.700000000000002509104035652853781357407569885254e-01,7.033525435098281208823323140677530318498611450195e-02,1.069893496166844128192341401017984026111662387848e-02,1.000000000000000020816681711721685132943093776703e-02
4.800000000000002597921877622866304591298103332520e-01,7.034360146166387939281605667929397895932197570801e-02,1.071473119460692596804918252928473521023988723755e-02,1.000000000000000020816681711721685132943093776703e-02
4.900000000000002686739719592878827825188636779785e-01,7.035200143757786017673083733825478702783584594727e-02,1.073056755010333256084020803200473892502486705780e-02,1.000000000000000020816681711721685132943093776703e-02
5.000000000000002220446049250313080847263336181641e-01,7.036045442154099938125710878011886961758136749268e-02,1.074644412545367778977212225299808778800070285797e-02,1.000000000000000020816681711721685132943093776703e-02
5.100000000000002309263891220325604081153869628906e-01,7.036896055662737736735579119340400211513042449951e-02,1.076236101804560474359817590084276162087917327881e-02,1.000000000000000020816681711721685132943093776703e-02
5.200000000000002398081733190338127315044403076172e-01,7.037751998616897930460822863096836954355239868164e-02,1.077831832535778439075002665958891157060861587524e-02,1.000000000000000020816681711721685132943093776703e-02
5.300000000000002486899575160350650548934936523438e-01,7.038613285375576456015522808229434303939342498779e-02,1.079431614495931536501505121350419358350336551666e-02,1.000000000000000020816681711721685132943093776703e-02
5.400000000000002575717417130363173782825469970703e-01,7.039479930323569445427267510240199044346809387207e-02,1.081035457450911507759627738778362981975078582764e-02,1.000000000000000020816681711721685132943093776703e-02
5.500000000000002664535259100375697016716003417969e-01,7.040351947871481552709838069858960807323455810547e-02,1.082643371175529695138450847480271477252244949341e-02,1.000000000000000020816681711721685132943093776703e-02
5.600000000000002753353101070388220250606536865234e-01,7.041229352455727341641988914489047601819038391113e-02,1.084255365453453724688959169952795491553843021393e-02,1.000000000000000020816681711721685132943093776703e-02
5.700000000000002842170943040400743484497070312500e-01,7.042112158538535449103790142544312402606010437012e-02,1.085871450077144362289516266173450276255607604980e-02,1.000000000000000020816681711721685132943093776703e-02
5.800000000000002930988785010413266718387603759766e-01,7.043000380607952748412969867786159738898277282715e-02,1.087491634847790288043167805653865798376500606537e-02,1.000000000000000020816681711721685132943093776703e-02
5.900000000000003019806626980425789952278137207031e-01,7.043894033177844349324914219323545694351196289062e-02,1.089115929575242523730249644131617969833314418793e-02,1.000000000000000020816681711721685132943093776703e-02
6.000000000000003108624468950438313186168670654297e-01,7.044793130787896373590228904504328966140747070312e-02,1.090744344077947819426910314177803229540586471558e-02,1.000000000000000020816681711721685132943093776703e-02
6.100000000000003197442310920450836420059204101562e-01,7.045697688003617342733519990360946394503116607666e-02,1.092376888182881172761895527401065919548273086548e-02,1.000000000000000020816681711721685132943093776703e-02
6.200000000000003286260152890463359653949737548828e-01,7.046607719416338178053393903610412962734699249268e-02,1.094013571725477307339247090567369014024734497070e-02,1.000000000000000020816681711721685132943093776703e-02
6.300000000000003375077994860475882887840270996094e-01,7.047523239643213588401238212099997326731681823730e-02,1.095654404549561283799263833316217642277479171753e-02,1.000000000000000020816681711721685132943093776703e-02
6.400000000000003463895836830488406121730804443359e-01,7.048444263327217906844879280470195226371288299561e-02,1.097299396507278070045376949792625964619219303131e-02,1.000000000000000020816681711721685132943093776703e-02
6.500000000000003552713678800500929355621337890625e-01,7.049370805137145090668582270154729485511779785156e-02,1.098948557459021244109287351875536842271685600281e-02,1.000000000000000020816681711721685132943093776703e-02
6.600000000000003641531520770513452589511871337891e-01,7.050302879767608721373051139380550011992454528809e-02,1.100601897273360829654365034002694301307201385498e-02,1.000000000000000020816681711721685132943093776703e-02
6.700000000000003730349362740525975823402404785156e-01,7.051240501939035065781524735939456149935722351074e-02,1.102259425826969917172615254230549908243119716644e-02,1.000000000000000020816681711721685132943093776703e-02
6.800000000000003819167204710538499057292938232422e-01,7.052183686397663076039776797188096679747104644775e-02,1.103921153004550591292254324571331380866467952728e-02,1.000000000000000020816681711721685132943093776703e-02
6.900000000000003907985046680551022291183471679688e-01,7.053132447915540226279773605710943229496479034424e-02,1.105587088698758643778852217565145110711455345154e-02,1.000000000000000020816681711721685132943093776703e-02
7.000000000000003996802888650563545525074005126953e-01,7.054086801290512798168208519200561568140983581543e-02,1.107257242810127419174737184448531479574739933014e-02,1.000000000000000020816681711721685132943093776703e-02
7.100000000000004085620730620576068758964538574219e-01,7.055046761346228656464063533348962664604187011719e-02,1.108931625246990793076662384919472970068454742432e-02,1.000000000000000020816681711721685132943093776703e-02
7.200000000000004174438572590588591992855072021484e-01,7.056012342932123371230801467390847392380237579346e-02,1.110610245925404936107039333137436187826097011566e-02,1.000000000000000020816681711721685132943093776703e-02
7.300000000000004263256414560601115226745605468750e-01,7.056983560923417442278804401212255470454692840576e-02,1.112293114769069037051085757639157236553728580475e-02,1.000000000000000020816681711721685132943093776703e-02
7.400000000000004352074256530613638460636138916016e-01,7.057960430221106584713908205230836756527423858643e-02,1.113980241709245505576930668212298769503831863403e-02,1.000000000000000020816681711721685132943093776703e-02
7.500000000000004440892098500626161694526672363281e-01,7.058942965751957565601060196058824658393859863281e-02,1.115671636684678613704591043642722070217132568359e-02,1.000000000000000020816681711721685132943093776703e-02
7.600000000000004529709940470638684928417205810547e-01,7.059931182468494326176511322046280838549137115479e-02,1.117367309641512269913210531058211927302181720734e-02,1.000000000000000020816681711721685132943093776703e-02
7.700000000000004618527782440651208162307739257812e-01,7.060925095348992430732693037498393096029758453369e-02,1.119067270533207099358907754549363744445145130157e-02,1.000000000000000020816681711721685132943093776703e-02
7.800000000000004707345624410663731396198272705078e-01,7.061924719397465188830409488218720071017742156982e-02,1.120771529320455962841496244664085679687559604645e-02,1.000000000000000020816681711721685132943093776703e-02
7.900000000000004796163466380676254630088806152344e-01,7.062930069643653940847372041389462538063526153564e-02,1.122480095971098781881813977179263019934296607971e-02,1.000000000000000020816681711721685132943093776703e-02
8.000000000000004884981308350688777863979339599609e-01,7.063941161143018343526733815451734699308872222900e-02,1.124192980460036322964967325788165908306837081909e-02,1.000000000000000020816681711721685132943093776703e-02
8.100000000000004973799150320701301097869873046875e-01,7.064958008976722492189281865648808889091014862061e-02,1.125910192769143114421837026384309865534305572510e-02,1.000000000000000020816681711721685132943093776703e-02
8.200000000000005062616992290713824331760406494141e-01,7.065980628251619655166848588123684749007225036621e-02,1.127631742887178628587108164538221899420022964478e-02,1.000000000000000020816681711721685132943093776703e-02
8.300000000000005151434834260726347565650939941406e-01,7.067009034100242559350846249799360521137714385986e-02,1.129357640809698117012604967612787731923162937164e-02,1.000000000000000020816681711721685132943093776703e-02
8.400000000000005240252676230738870799541473388672e-01,7.068043241680783961289336048139375634491443634033e-02,1.131087896538961884429497217752214055508375167847e-02,1.000000000000000020816681711721685132943093776703e-02
8.500000000000005329070518200751394033432006835938e-01,7.069083266177085544956781859582406468689441680908e-02,1.132822520083844389238159067190281348302960395813e-02,1.000000000000000020816681711721685132943093776703e-02
8.600000000000005417888360170763917267322540283203e-01,7.070129122798619880629900080748484469950199127197e-02,1.134561521459740741912813888347955071367323398590e-02,1.000000000000000020816681711721685132943093776703e-02
8.700000000000005506706202140776440501213073730469e-01,7.071180826780472383763509469645214267075061798096e-02,1.136304910688473550350874319292415748350322246552e-02,1.000000000000000020816681711721685132943093776703e-02
8.800000000000005595524044110788963735103607177734e-01,7.072238393383326049423942549765342846512794494629e-02,1.138052697798198030498806332388994633220136165619e-02,1.000000000000000020816681711721685132943093776703e-02
8.900000000000005684341886080801486968994140625000e-01,7.073301837893442023386114669847302138805389404297e-02,1.139804892823306076143907716868852730840444564819e-02,1.000000000000000020816681711721685132943093776703e-02
