time,u0,u1,tau
0.000000000000000000000000000000000000000000000000e+00,4.000000000000000083266726846886740531772375106812e-02,9.999999999999995003996389186795568093657493591309e-03,1.000000000000000020816681711721685132943093776703e-02
1.000000000000000020816681711721685132943093776703e-02,4.000469878906588033773417123484250623732805252075e-02,1.001329856652990145382542408469817019067704677582e-02,1.000000000000000020816681711721685132943093776703e-02
2.000000000000000041633363423443370265886187553406e-02,4.000944163451233132056117369756975676864385604858e-02,1.002663526442788138881567761018231976777315139771e-02,1.000000000000000020816681711721685132943093776703e-02
2.999999999999999888977697537484345957636833190918e-02,4.001422865649820193034713611268671229481697082520e-02,1.004001020045723092943834586776574724353849887848e-02,1.000000000000000020816681711721685132943093776703e-02
4.000000000000000083266726846886740531772375106812e-02,4.001905997544290272127653906863997690379619598389e-02,1.005342348158340219643758217671347665600478649139e-02,1.000000000000000020816681711721685132943093776703e-02
5.000000000000000277555756156289135105907917022705e-02,4.002393571202696870292569997218379285186529159546e-02,1.006687521497426525407536956890908186323940753937e-02,1.000000000000000020816681711721685132943093776703e-02
6.000000000000000471844785465691529680043458938599e-02,4.002885598719260751288118171942187473177909851074e-02,1.008036550800035617558858547226918744854629039764e-02,1.000000000000000020816681711721685132943093776703e-02
7.000000000000000666133814775093924254179000854492e-02,4.003382092214423371157039355239248834550380706787e-02,1.009389446823512163919911444054378080181777477264e-02,1.000000000000000020816681711721685132943093776703e-02
8.000000000000000166533453693773481063544750213623e-02,4.003883063834902389377390363733866252005100250244e-02,1.010746220345516525884743685992361861281096935272e-02,1.000000000000000020816681711721685132943093776703e-02
8.999999999999999666933092612453037872910499572754e-02,4.004388525753745098345603992129326798021793365479e-02,1.012106882164048350658536179480506689287722110748e-02,1.000000000000000020816681711721685132943093776703e-02
9.999999999999999167332731531132594682276248931885e-02,4.004898490170381158970158708143571857362985610962e-02,1.013471443097469643079833190313365776091814041138e-02,1.000000000000000020816681711721685132943093776703e-02
1.099999999999999866773237044981215149164199829102e-01,4.005412969310677417933419519613380543887615203857e-02,1.014839913984528010915120432855474064126610755920e-02,1.000000000000000020816681711721685132943093776703e-02
1.199999999999999816813200936849170830100774765015e-01,4.005931975426990643285307669430039823055267333984e-02,1.016212305684378522374622377810737816616892814636e-02,1.000000000000000020816681711721685132943093776703e-02
1.299999999999999766853164828717126511037349700928e-01,4.006455520798218872258189549029339104890823364258e-02,1.017588629076605390155751962311114766635000705719e-02,1.000000000000000020816681711721685132943093776703e-02
1.399999999999999855671006798729649744927883148193e-01,4.006983617729854840749936784050078131258487701416e-02,1.018968895061244002431255495366713148541748523712e-02,1.000000000000000020816681711721685132943093776703e-02
1.499999999999999944488848768742172978818416595459e-01,4.007516278554039412806986319992574863135814666748e-02,1.020353114558800698696838793466667993925511837006e-02,1.000000000000000020816681711721685132943093776703e-02
1.600000000000000033306690738754696212708950042725e-01,4.008053515629610152881667772817309014499187469482e-02,1.021741298510274106869921695306402398273348808289e-02,1.000000000000000020816681711721685132943093776703e-02
1.700000000000000122124532708767219446599483489990e-01,4.008595341342155449204653905326267704367637634277e-02,1.023133457877174225247873806665666052140295505524e-02,1.000000000000000020816681711721685132943093776703e-02
1.800000000000000210942374678779742680490016937256e-01,4.009141768104065167710459149930102284997701644897e-02,1.024529603641541851410945440647992654703557491302e-02,1.000000000000000020816681711721685132943093776703e-02
1.900000000000000299760216648792265914380550384521e-01,4.009692808354579918184157349969609640538692474365e-02,1.025929746805967490708155764878029003739356994629e-02,1.000000000000000020816681711721685132943093776703e-02
2.000000000000000388578058618804789148271083831787e-01,4.010248474559843789855051454651402309536933898926e-02,1.027333898393609570853790557976026320829987525940e-02,1.000000000000000020816681711721685132943093776703e-02
2.100000000000000477395900588817312382161617279053e-01,4.010808779212952229764610478923714254051446914673e-02,1.028742069448212136106857172990203252993524074554e-02,1.000000000000000020816681711721685132943093776703e-02
2.200000000000000566213742558829835616052150726318e-01,4.011373734834002696691968026243557687848806381226e-02,1.030154271034121847561149110106271109543740749359e-02,1.000000000000000020816681711721685132943093776703e-02
2.300000000000000655031584528842358849942684173584e-01,4.011943353970145315079420811343879904597997665405e-02,1.031570514236304983435310589356959098950028419495e-02,1.000000000000000020816681711721685132943093776703e-02
2.400000000000000743849426498854882083833217620850e-01,4.012517649195630753400365620109369046986103057861e-02,1.032990810160363225056467939566573477350175380707e-02,1.000000000000000020816681711721685132943093776703e-02
2.500000000000000555111512312578270211815834045410e-01,4.013096633111858796416626660175097640603780746460e-02,1.034415169932549616316208584976266138255596160889e-02,1.000000000000000020816681711721685132943093776703e-02
2.600000000000000643929354282590793445706367492676e-01,4.013680318347426223546392520802328363060951232910e-02,1.035843604699783135347779250423627672716975212097e-02,1.000000000000000020816681711721685132943093776703e-02
2.700000000000000732747196252603316679596900939941e-01,4.014268717558177462789714695645670872181653976440e-02,1.037276125629663613147979361883699311874806880951e-02,1.000000000000000020816681711721685132943093776703e-02
2.800000000000000821565038222615839913487434387207e-01,4.014861843427248999649492589014698751270771026611e-02,1.038712743910485437892621263245018781162798404694e-02,1.000000000000000020816681711721685132943093776703e-02
2.900000000000000910382880192628363147377967834473e-01,4.015459708665119337167581647918268572539091110229e-02,1.040153470751250738834947640043537830933928489685e-02,1.000000000000000020816681711721685132943093776703e-02
3.000000000000000999200722162640886381268501281738e-01,4.016062326009653404845778368326136842370033264160e-02,1.041598317381682570204048943196539767086505889893e-02,1.000000000000000020816681711721685132943093776703e-02
3.100000000000001088018564132653409615159034729004e-01,4.016669708226151824792538036490441299974918365479e-02,1.043047295052236880796847628971590893343091011047e-02,1.000000000000000020816681711721685132943093776703e-02
3.200000000000001176836406102665932849049568176270e-01,4.017281868107395320643959735207317862659692764282e-02,1.044500415034114310097734801274782512336969375610e-02,1.000000000000000020816681711721685132943093776703e-02
3.300000000000001265654248072678456082940101623535e-01,4.017898818473690514263552131524193100631237030029e-02,1.045957688619271290508816463216135161928832530975e-02,1.000000000000000020816681711721685132943093776703e-02
3.400000000000001354472090042690979316830635070801e-01,4.018520572172916416331389655169914476573467254639e-02,1.047419127120430108746074182590746204368770122528e-02,1.000000000000000020816681711721685132943093776703e-02
3.500000000000001443289932012703502550721168518066e-01,4.019147142080568835265097504816367290914058685303e-02,1.048884741871089661124916148082775180228054523468e-02,1.000000000000000020816681711721685132943093776703e-02
3.600000000000001532107773982716025784611701965332e-01,4.019778541099806173919617435785767156630754470825e-02,1.050354544225533953705209455620206426829099655151e-02,1.000000000000000020816681711721685132943093776703e-02
3.700000000000001620925615952728549018502235412598e-01,4.020414782161491062950631203420925885438919067383e-02,1.051828545558841469798050383133158902637660503387e-02,1.000000000000000020816681711721685132943093776703e-02
3.800000000000001709743457922741072252392768859863e-01,4.021055878224236851403716741515381727367639541626e-02,1.053306757266892629276711090824392158538103103638e-02,1.000000000000000020816681711721685132943093776703e-02
3.900000000000001798561299892753595486283302307129e-01,4.021701842274449240077771605683665256947278976440e-02,1.054789190766377768304629114481940632686018943787e-02,1.000000000000000020816681711721685132943093776703e-02
4.000000000000001887379141862766118720173835754395e-01,4.022352687326372078224778761068591848015785217285e-02,1.056275857494804251701658870388200739398598670959e-02,1.000000000000000020816681711721685132943093776703e-02
4.100000000000001976196983832778641954064369201660e-01,4.023008426422126915245058853543014265596866607666e-02,1.057766768910502024059194781102632987312972545624e-02,1.000000000000000020816681711721685132943093776703e-02
4.200000000000002065014825802791165187954902648926e-01,4.023669072631757409608255215971439611166715621948e-02,1.059261936492630028217032389648011303506791591644e-02,1.000000000000000020816681711721685132943093776703e-02
4.300000000000002153832667772803688421845436096191e-01,4.024334639053269574437976530134619679301977157593e-02,1.060761371741180889016753496889577945694327354431e-02,1.000000000000000020816681711721685132943093776703e-02
4.400000000000002242650509742816211655735969543457e-01,4.025005138812674798654001051545492373406887054443e-02,1.062265086176985423582763701233488973230123519897e-02,1.000000000000000020816681711721685132943093776703e-02
4.500000000000002331468351712828734889626502990723e-01,4.025680585064030092556919271373772062361240386963e-02,1.063773091341716110769244352241003070957958698273e-02,1.000000000000000020816681711721685132943093776703e-02
4.600000000000002420286193682841258123517036437988e-01,4.026360990989479027302166969093377701938152313232e-02,1.065285398797890907551799699604089255444705486298e-02,1.000000000000000020816681711721685132943093776703e-02
4.700000000000002509104035652853781357407569885254e-01,4.027046369799290592705887092961347661912441253662e-02,1.066802020128875157223280467633230728097259998322e-02,1.000000000000000020816681711721685132943093776703e-02
4.800000000000002597921877622866304591298103332520e-01,4.027736734731901524497743594110943377017974853516e-02,1.068322966938883844534302625106647610664367675781e-02,1.000000000000000020816681711721685132943093776703e-02
4.900000000000002686739719592878827825188636779785e-01,4.028432099053953080458612134862050879746675491333e-02,1.069848250852982289582637775993134710006415843964e-02,1.000000000000000020816681711721685132943093776703e-02
5.000000000000002220446049250313080847263336181641e-01,4.029132476060331979894613141368608921766281127930e-02,1.071377883517087188647298745536318165250122547150e-02,1.000000000000000020816681711721685132943093776703e-02
5.100000000000002309263891220325604081153869628906e-01,4.029837879074206485885412121206172741949558258057e-02,1.072911876597966267243844384893236565403640270233e-02,1.000000000000000020816681711721685132943093776703e-02
5.200000000000002398081733190338127315044403076172e-01,4.030548321447066650868862325296504423022270202637e-02,1.074450241783237759707336778092212625779211521149e-02,1.000000000000000020816681711721685132943093776703e-02
5.300000000000002486899575160350650548934936523438e-01,4.031263816558761092778695456217974424362182617188e-02,1.075992990781368327524170069864339893683791160583e-02,1.000000000000000020816681711721685132943093776703e-02
5.400000000000002575717417130363173782825469970703e-01,4.031984377817533771182212376515963114798069000244e-02,1.077540135321671498080942086517097777687013149261e-02,1.000000000000000020816681711721685132943093776703e-02
5.500000000000002664535259100375697016716003417969e-01,4.032710018660060763417973817013262305408716201782e-02,1.079091687154304715634545175362291047349572181702e-02,1.000000000000000020816681711721685132943093776703e-02
5.600000000000002753353101070388220250606536865234e-01,4.033440752551486346844100694397639017552137374878e-02,1.080647658050265698392866653421151568181812763214e-02,1.000000000000000020816681711721685132943093776703e-02
5.700000000000002842170943040400743484497070312500e-01,4.034176592985458387197184038086561486124992370605e-02,1.082208059801388101706098865406602271832525730133e-02,1.000000000000000020816681711721685132943093776703e-02
5.800000000000002930988785010413266718387603759766e-01,4.034917553484165114729975698537600692361593246460e-02,1.083772904220337007785701644024811685085296630859e-02,1.000000000000000020816681711721685132943093776703e-02
5.900000000000003019806626980425789952278137207031e-01,4.035663647598368430902127101944643072783946990967e-02,1.085342203140603027644583988831072929315268993378e-02,1.000000000000000020816681711721685132943093776703e-02
6.000000000000003108624468950438313186168670654297e-01,4.036414888907437908960318395656940992921590805054e-02,1.086915968416495882620242952043554396368563175201e-02,1.000000000000000020816681711721685132943093776703e-02
6.100000000000003197442310920450836420059204101562e-01,4.037171291019385488407777984321000985801219940186e-02,1.088494211923137638953207328995631542056798934937e-02,1.000000000000000020816681711721685132943093776703e-02
6.200000000000003286260152890463359653949737548828e-01,4.037932867570898781695021284576796460896730422974e-02,1.090076945556454901531395762503962032496929168701e-02,1.000000000000000020816681711721685132943093776703e-02
6.300000000000003375077994860475882887840270996094e-01,4.038699632227373687021199089031142648309469223022e-02,1.091664181233170140272736858833013684488832950592e-02,1.000000000000000020816681711721685132943093776703e-02
6.400000000000003463895836830488406121730804443359e-01,4.039471598682947001135445930231071542948484420776e-02,1.093255930890792669563094108298173523508012294769e-02,1.000000000000000020816681711721685132943093776703e-02
6.500000000000003552713678800500929355621337890625e-01,4.040248780660526950470057272468693554401397705078e-02,1.094852206487608413387757622103890753351151943207e-02,1.000000000000000020816681711721685132943093776703e-02
6.600000000000003641531520770513452589511871337891e-01,4.041031191911825803941837875754572451114654541016e-02,1.096453020002669670462935869181819725781679153442e-02,1.000000000000000020816681711721685132943093776703e-02
6.700000000000003730349362740525975823402404785156e-01,4.041818846217391097974669378345424775034189224243e-02,1.098058383435783144643771436221868498250842094421e-02,1.000000000000000020816681711721685132943093776703e-02
6.800000000000003819167204710538499057292938232422e-01,4.042611757386634085964516316380468197166919708252e-02,1.099668308807498148804704385383956832811236381531e-02,1.000000000000000020816681711721685132943093776703e-02
6.900000000000003907985046680551022291183471679688e-01,4.043409939257861657191384097131958696991205215454e-02,1.101282808159093594413402428244808106683194637299e-02,1.000000000000000020816681711721685132943093776703e-02
7.000000000000003996802888650563545525074005126953e-01,4.044213405698304092394934627918701153248548507690e-02,1.102901893552563940270605513660484575666487216949e-02,1.000000000000000020816681711721685132943093776703e-02
7.100000000000004085620730620576068758964538574219e-01,4.045022170604144901018273117188073229044675827026e-02,1.104525577070605141249970415628922637552022933960e-02,1.000000000000000020816681711721685132943093776703e-02
7.200000000000004174438572590588591992855072021484e-01,4.045836247900547882894173312706698197871446609497e-02,1.106153870816599035786786942026083124801516532898e-02,1.000000000000000020816681711721685132943093776703e-02
7.300000000000004263256414560601115226745605468750e-01,4.046655651541686271599473911919631063938140869141e-02,1.107786786914597733366694143342101597227156162262e-02,1.000000000000000020816681711721685132943093776703e-02
7.400000000000004352074256530613638460636138916016e-01,4.047480395510767714473132627972518093883991241455e-02,1.109424337509306267290920544610344222746789455414e-02,1.000000000000000020816681711721685132943093776703e-02
7.500000000000004440892098500626161694526672363281e-01,4.048310493820064109860012990793620701879262924194e-02,1.111066534766065420913871975017173099331557750702e-02,1.000000000000000020816681711721685132943093776703e-02
7.600000000000004529709940470638684928417205810547e-01,4.049145960510933811571376850224623922258615493774e-02,1.112713390870832992629591018385326606221497058868e-02,1.000000000000000020816681711721685132943093776703e-02
7.700000000000004618527782440651208162307739257812e-01,4.049986809653850772239280786379822529852390289307e-02,1.114364918030164713913521268295880872756242752075e-02,1.000000000000000020816681711721685132943093776703e-02
7.800000000000004707345624410663731396198272705078e-01,4.050833055348427441666459003499767277389764785767e-02,1.116021128471194300002533594806664041243493556976e-02,1.000000000000000020816681711721685132943093776703e-02
7.900000000000004796163466380676254630088806152344e-01,4.051684711723439052954987005250586662441492080688e-02,1.117682034441612459740866825086413882672786712646e-02,1.000000000000000020816681711721685132943093776703e-02
8.000000000000004884981308350688777863979339599609e-01,4.052541792936848602524335660746146459132432937622e-02,1.119347648209645385009025631006807088851928710938e-02,1.000000000000000020816681711721685132943093776703e-02
8.100000000000004973799150320701301097869873046875e-01,4.053404313175829748461254098401695955544710159302e-02,1.121017982064032199318592830650231917388737201691e-02,1.000000000000000020816681711721685132943093776703e-02
8.200000000000005062616992290713824331760406494141e-01,4.054272286656789014980262209064676426351070404053e-02,1.122693048314001539045303701414013630710542201996e-02,1.000000000000000020816681711721685132943093776703e-02
8.300000000000005151434834260726347565650939941406e-01,4.055145727625388690773533539868367370218038558960e-02,1.124372859289247440772729902391802170313894748688e-02,1.000000000000000020816681711721685132943093776703e-02
8.400000000000005240252676230738870799541473388672e-01,4.056024650356567645692607015917019452899694442749e-02,1.126057427339904534746573006032122066244482994080e-02,1.000000000000000020816681711721685132943093776703e-02
8.500000000000005329070518200751394033432006835938e-01,4.056909069154562841319489052693825215101242065430e-02,1.127746764836522024022524846031956258229911327362e-02,1.000000000000000020816681711721685132943093776703e-02
8.600000000000005417888360170763917267322540283203e-01,4.057798998352929453758974887023214250802993774414e-02,1.129440884170036969724737474507492152042686939240e-02,1.000000000000000020816681711721685132943093776703e-02
8.700000000000005506706202140776440501213073730469e-01,4.058694452314560302541579517310310620814561843872e-02,1.131139797751746708942555130761320469900965690613e-02,1.000000000000000020816681711721685132943093776703e-02
8.800000000000005595524044110788963735103607177734e-01,4.059595445431705973415859034503228031098842620850e-02,1.132843518013280578737855819326796336099505424500e-02,1.000000000000000020816681711721685132943093776703e-02
8.900000000000005684341886080801486968994140625000e-01,4.060501992125992859472560780886851716786623001099e-02,1.134552057406570425845959704247434274293482303619e-02,1.000000000000000020816681711721685132943093776703e-02
