time,u0,u1,tau
0.000000000000000000000000000000000000000000000000e+00,8.000000000000000166533453693773481063544750213623e-02,4.000000000000000777156117237609578296542167663574e-02,1.000000000000000020816681711721685132943093776703e-02
1.000000000000000020816681711721685132943093776703e-02,8.002887867305158442476908930984791368246078491211e-02,4.000647427458614568962502744398079812526702880859e-02,1.000000000000000020816681711721685132943093776703e-02
2.000000000000000041633363423443370265886187553406e-02,8.005792029067959614252458777627907693386077880859e-02,4.001308443802403802536105104081798344850540161133e-02,1.000000000000000020816681711721685132943093776703e-02
2.999999999999999888977697537484345957636833190918e-02,8.008712506390271157474813890075893141329288482666e-02,4.001983041634571414135734812589362263679504394531e-02,1.000000000000000020816681711721685132943093776703e-02
4.000000000000000083266726846886740531772375106812e-02,8.011649320448975541975045189246884547173976898193e-02,4.002671213575455938515901266328000929206609725952e-02,1.000000000000000020816681711721685132943093776703e-02
5.000000000000000277555756156289135105907917022705e-02,8.014602492496007701827664959637331776320934295654e-02,4.003372952262015949109752455115085467696189880371e-02,1.000000000000000020816681711721685132943093776703e-02
6.000000000000000471844785465691529680043458938599e-02,8.017572043858388342041365604018210433423519134521e-02,4.004088250347314498212014655109669547528028488159e-02,1.000000000000000020816681711721685132943093776703e-02
7.000000000000000666133814775093924254179000854492e-02,8.020557995938250306355854490902856923639774322510e-02,4.004817100499999393825589777407003566622734069824e-02,1.000000000000000020816681711721685132943093776703e-02
8.000000000000000166533453693773481063544750213623e-02,8.023560370212870496153811927797505632042884826660e-02,4.005559495403777231503639200127508956938982009888e-02,1.000000000000000020816681711721685132943093776703e-02
8.999999999999999666933092612453037872910499572754e-02,8.026579188234694850478945227223448455333709716797e-02,4.006315427756888120081057991228590253740549087524e-02,1.000000000000000020816681711721685132943093776703e-02
9.999999999999999167332731531132594682276248931885e-02,8.029614471631357774938919646956492215394973754883e-02,4.007084890271574162401435614810907281935214996338e-02,1.000000000000000020816681711721685132943093776703e-02
1.099999999999999866773237044981215149164199829102e-01,8.032666242105707121723412456049118191003799438477e-02,4.007867875673545160486455074533296283334493637085e-02,1.000000000000000020816681711721685132943093776703e-02
1.199999999999999816813200936849170830100774765015e-01,8.035734521435823618507043875069939531385898590088e-02,4.008664376701441545147730494136339984834194183350e-02,1.000000000000000020816681711721685132943093776703e-02
1.299999999999999766853164828717126511037349700928e-01,8.038819331475031970679623327669105492532253265381e-02,4.009474386106291060594131181460397783666849136353e-02,1.000000000000000020816681711721685132943093776703e-02
1.399999999999999855671006798729649744927883148193e-01,8.041920694151918902470299599372083321213722229004e-02,4.010297896650964755149715301740798167884349822998e-02,1.000000000000000020816681711721685132943093776703e-02
1.499999999999999944488848768742172978818416595459e-01,8.045038631470344259177807089145062491297721862793e-02,4.011134901109629502524711597288842312991619110107e-02,1.000000000000000020816681711721685132943093776703e-02
1.600000000000000033306690738754696212708950042725e-01,8.048173165509449333843150498069007880985736846924e-02,4.011985392267192890303206809221592266112565994263e-02,1.000000000000000020816681711721685132943093776703e-02
1.700000000000000122124532708767219446599483489990e-01,8.051324318423663806143508736568037420511245727539e-02,4.012849362918750190099004271360172424465417861938e-02,1.000000000000000020816681711721685132943093776703e-02
1.800000000000000210942374678779742680490016937256e-01,8.054492112442709905728577268746448680758476257324e-02,4.013726805869023001038797815454017836600542068481e-02,1.000000000000000020816681711721685132943093776703e-02
1.900000000000000299760216648792265914380550384521e-01,8.057676569871605187778129675280069932341575622559e-02,4.014617713931795117687784113513771444559097290039e-02,1.000000000000000020816681711721685132943093776703e-02
2.000000000000000388578058618804789148271083831787e-01,8.060877713090662533002017653416260145604610443115e-02,4.015522079929349091864665410867019090801477432251e-02,1.000000000000000020816681711721685132943093776703e-02
2.100000000000000477395900588817312382161617279053e-01,8.064095564555485984303828672636882402002811431885e-02,4.016439896691891692226406007648620288819074630737e-02,1.000000000000000020816681711721685132943093776703e-02
2.200000000000000566213742558829835616052150726318e-01,8.067330146796966583444543630321277305483818054199e-02,4.017371157056981445521159912459552288055419921875e-02,1.000000000000000020816681711721685132943093776703e-02
2.300000000000000655031584528842358849942684173584e-01,8.070581482421274044369852163072209805250167846680e-02,4.018315853868950626726075370243052020668983459473e-02,1.000000000000000020816681711721685132943093776703e-02
2.400000000000000743849426498854882083833217620850e-01,8.073849594109847038758687176596140488982200622559e-02,4.019273979978322391959366655100893694907426834106e-02,1.000000000000000020816681711721685132943093776703e-02
2.500000000000000555111512312578270211815834045410e-01,8.077134504619382093792978594137821346521377563477e-02,4.020245528241226523613605081663990858942270278931e-02,1.000000000000000020816681711721685132943093776703e-02
2.600000000000000643929354282590793445706367492676e-01,8.080436236781816938812283979132189415395259857178e-02,4.021230491518808236595106109234620817005634307861e-02,1.000000000000000020816681711721685132943093776703e-02
2.700000000000000732747196252603316679596900939941e-01,8.083754813504312464189638376410584896802902221680e-02,4.022228862676636984563316445928649045526981353760e-02,1.000000000000000020816681711721685132943093776703e-02
2.800000000000000821565038222615839913487434387207e-01,8.087090257769234680207404153406969271600246429443e-02,4.023240634584108327276297245589375961571931838989e-02,1.000000000000000020816681711721685132943093776703e-02
2.900000000000000910382880192628363147377967834473e-01,8.090442592634132512596778497027116827666759490967e-02,4.024265800113843022378645741810032632201910018921e-02,1.000000000000000020816681711721685132943093776703e-02
3.000000000000000999200722162640886381268501281738e-01,8.093811841231711434740958566180779598653316497803e-02,4.025304352141081953853074537619249895215034484863e-02,1.000000000000000020816681711721685132943093776703e-02
3.100000000000001088018564132653409615159034729004e-01,8.097198026769808487657087425759527832269668579102e-02,4.026356283543078978803819722998014185577630996704e-02,1.000000000000000020816681711721685132943093776703e-02
3.200000000000001176836406102665932849049568176270e-01,8.100601172531357585526734510494861751794815063477e-02,4.027421587198487529235535475891083478927612304688e-02,1.000000000000000020816681711721685132943093776703e-02
3.300000000000001265654248072678456082940101623535e-01,8.104021301874363147899060777490376494824886322021e-02,4.028500255986743744385236709604214411228895187378e-02,1.000000000000000020816681711721685132943093776703e-02
3.400000000000001354472090042690979316830635070801e-01,8.107458438231862629663737607188522815704345703125e-02,4.029592282787447521386070548032876104116439819336e-02,1.000000000000000020816681711721685132943093776703e-02
3.500000000000001443289932012703502550721168518066e-01,8.110912605111887663245084922891692258417606353760e-02,4.030697660479738014815964675108261872082948684692e-02,1.000000000000000020816681711721685132943093776703e-02
3.600000000000001532107773982716025784611701965332e-01,8.114383826097425200796209310283302329480648040771e-02,4.031816381941663585131152558460598811507225036621e-02,1.000000000000000020816681711721685132943093776703e-02
3.700000000000001620925615952728549018502235412598e-01,8.117872124846377268614361355503206141293048858643e-02,4.032948440049553134878479454528132919222116470337e-02,1.000000000000000020816681711721685132943093776703e-02
3.800000000000001709743457922741072252392768859863e-01,8.121377525091511007104827513103373348712921142578e-02,4.034093827677377730456242943546385504305362701416e-02,1.000000000000000020816681711721685132943093776703e-02
3.900000000000001798561299892753595486283302307129e-01,8.124900050640417037417506662677624262869358062744e-02,4.035252537696110836096252683091734070330858230591e-02,1.000000000000000020816681711721685132943093776703e-02
4.000000000000001887379141862766118720173835754395e-01,8.128439725375452562516898069588933140039443969727e-02,4.036424562973085078398938208010804373770952224731e-02,1.000000000000000020816681711721685132943093776703e-02
4.100000000000001976196983832778641954064369201660e-01,8.131996573253695570482335597262135706841945648193e-02,4.037609896371342071974552823121484834700822830200e-02,1.000000000000000020816681711721685132943093776703e-02
4.200000000000002065014825802791165187954902648926e-01,8.135570618306882384462852542128530330955982208252e-02,4.038808530748983632863158277359616477042436599731e-02,1.000000000000000020816681711721685132943093776703e-02
4.300000000000002153832667772803688421845436096191e-01,8.139161884641354927083511938690207898616790771484e-02,4.040020458958512583613753577083116397261619567871e-02,1.000000000000000020816681711721685132943093776703e-02
4.400000000000002242650509742816211655735969543457e-01,8.142770396437996882621490613018977455794811248779e-02,4.041245673846174252252794190098938997834920883179e-02,1.000000000000000020816681711721685132943093776703e-02
4.500000000000002331468351712828734889626502990723e-01,8.146396177952172634739724799146642908453941345215e-02,4.042484168251291032358807342461659573018550872803e-02,1.000000000000000020816681711721685132943093776703e-02
4.600000000000002420286193682841258123517036437988e-01,8.150039253513659265326651848226902075111865997314e-02,4.043735935005594861468836143103544600307941436768e-02,1.000000000000000020816681711721685132943093776703e-02
4.700000000000002509104035652853781357407569885254e-01,8.153699647526577165557171156251570209860801696777e-02,4.045000966932552760590979801236244384199380874634e-02,1.000000000000000020816681711721685132943093776703e-02
4.800000000000002597921877622866304591298103332520e-01,8.157377384469322034732385873212479054927825927734e-02,4.046279256846693067606324234475323464721441268921e-02,1.000000000000000020816681711721685132943093776703e-02
4.900000000000002686739719592878827825188636779785e-01,8.161072488894487164667879142143647186458110809326e-02,4.047570797552921262330016816122224554419517517090e-02,1.000000000000000020816681711721685132943093776703e-02
5.000000000000002220446049250313080847263336181641e-01,8.164784985428788499639551901054801419377326965332e-02,4.048875581845837873240512294614745769649744033813e-02,1.000000000000000020816681711721685132943093776703e-02
5.100000000000002309263891220325604081153869628906e-01,8.168514898772985532993118340527871623635292053223e-02,4.050193602509045975867962852134951390326023101807e-02,1.000000000000000020816681711721685132943093776703e-02
5.200000000000002398081733190338127315044403076172e-01,8.172262253701798040417259016976458951830863952637e-02,4.051524852314460772850779335385595913976430892944e-02,1.000000000000000020816681711721685132943093776703e-02
5.300000000000002486899575160350650548934936523438e-01,8.176027075063821425437993184459628537297248840332e-02,4.052869324021609459540727016246819403022527694702e-02,1.000000000000000020816681711721685132943093776703e-02
5.400000000000002575717417130363173782825469970703e-01,8.179809387781437901576708782158675603568553924561e-02,4.054227010376931089608021352432842832058668136597e-02,1.000000000000000020816681711721685132943093776703e-02
5.500000000000002664535259100375697016716003417969e-01,8.183609216850729062286973203299567103385925292969e-02,4.055597904113068113973739059474610257893800735474e-02,1.000000000000000020816681711721685132943093776703e-02
5.600000000000002753353101070388220250606536865234e-01,8.187426587341377348661097812509979121387004852295e-02,4.056981997948157225852838791979593224823474884033e-02,1.000000000000000020816681711721685132943093776703e-02
5.700000000000002842170943040400743484497070312500e-01,8.191261524396577231588167933296062983572483062744e-02,4.058379284585114654682058699108893051743507385254e-02,1.000000000000000020816681711721685132943093776703e-02
5.800000000000002930988785010413266718387603759766e-01,8.195114053232928352787922676725429482758045196533e-02,4.059789756710916602822081244994478765875101089478e-02,1.000000000000000020816681711721685132943093776703e-02
5.900000000000003019806626980425789952278137207031e-01,8.198984199140339768074881021675537340342998504639e-02,4.061213406995874825033965294096560683101415634155e-02,1.000000000000000020816681711721685132943093776703e-02
6.000000000000003108624468950438313186168670654297e-01,8.202871987481923088392221643516677431762218475342e-02,4.062650228092910126287407024392450693994760513306e-02,1.000000000000000020816681711721685132943093776703e-02
6.100000000000003197442310920450836420059204101562e-01,8.206777443693884233066881961349281482398509979248e-02,4.064100212636819614564487324059882666915655136108e-02,1.000000000000000020816681711721685132943093776703e-02
6.200000000000003286260152890463359653949737548828e-01,8.210700593285416570843437966686906293034553527832e-02,4.065563353243539096437686453100468497723340988159e-02,1.000000000000000020816681711721685132943093776703e-02
6.300000000000003375077994860475882887840270996094e-01,8.214641461838582958687737800573813728988170623779e-02,4.067039642509403390979727532794640865176916122437e-02,1.000000000000000020816681711721685132943093776703e-02
6.400000000000003463895836830488406121730804443359e-01,8.218600075008203331705658456485252827405929565430e-02,4.068529073010399704779516127928218338638544082642e-02,1.000000000000000020816681711721685132943093776703e-02
6.500000000000003552713678800500929355621337890625e-01,8.222576458521735354167958575999364256858825683594e-02,4.070031637301418231400518266127619426697492599487e-02,1.000000000000000020816681711721685132943093776703e-02
6.600000000000003641531520770513452589511871337891e-01,8.226570638179150907198788900132058188319206237793e-02,4.071547327915497199724015331412374507635831832886e-02,1.000000000000000020816681711721685132943093776703e-02
6.700000000000003730349362740525975823402404785156e-01,8.230582639852812576464202720671892166137695312500e-02,4.073076137363065146734797394856286700814962387085e-02,1.000000000000000020816681711721685132943093776703e-02
6.800000000000003819167204710538499057292938232422e-01,8.234612489487345976524323987177922390401363372803e-02,4.074618058131176251412952638020215090364217758179e-02,1.000000000000000020816681711721685132943093776703e-02
6.900000000000003907985046680551022291183471679688e-01,8.238660213099509299627953851086203940212726593018e-02,4.076173082682742199178704822770669125020503997803e-02,1.000000000000000020816681711721685132943093776703e-02
7.000000000000003996802888650563545525074005126953e-01,8.242725836778058701170834865479264408349990844727e-02,4.077741203455760576890298807484214194118976593018e-02,1.000000000000000020816681711721685132943093776703e-02
7.100000000000004085620730620576068758964538574219e-01,8.246809386683613685153915184855577535927295684814e-02,4.079322412862538410616153328192012850195169448853e-02,1.000000000000000020816681711721685132943093776703e-02
7.200000000000004174438572590588591992855072021484e-01,8.250910889048514162968928076224983669817447662354e-02,4.080916703288908764513109872495988383889198303223e-02,1.000000000000000020816681711721685132943093776703e-02
7.300000000000004263256414560601115226745605468750e-01,8.255030370176681675520313774541136808693408966064e-02,4.082524067093445951925900772039312869310379028320e-02,1.000000000000000020816681711721685132943093776703e-02
7.400000000000004352074256530613638460636138916016e-01,8.259167856443470900895675868014222942292690277100e-02,4.084144496606673807592713387748517561703920364380e-02,1.000000000000000020816681711721685132943093776703e-02
7.500000000000004440892098500626161694526672363281e-01,8.263323374295522549815018464869353920221328735352e-02,4.085777984130271184293192732184252236038446426392e-02,1.000000000000000020816681711721685132943093776703e-02
7.600000000000004529709940470638684928417205810547e-01,8.267496950250610709964860234322259202599525451660e-02,4.087424521936270510602540184663666877895593643188e-02,1.000000000000000020816681711721685132943093776703e-02
7.700000000000004618527782440651208162307739257812e-01,8.271688610897488802553567666109302081167697906494e-02,4.089084102266254960866831424937117844820022583008e-02,1.000000000000000020816681711721685132943093776703e-02
7.800000000000004707345624410663731396198272705078e-01,8.275898382895731375530345985680469311773777008057e-02,4.090756717330547992395040068913658615201711654663e-02,1.000000000000000020816681711721685132943093776703e-02
7.900000000000004796163466380676254630088806152344e-01,8.280126292975571733467887725055334158241748809814e-02,4.092442359307398025425328569326666183769702911377e-02,1.000000000000000020816681711721685132943093776703e-02
8.000000000000004884981308350688777863979339599609e-01,8.284372367937740955223802075124694965779781341553e-02,4.094141020342162429201948725676629692316055297852e-02,1.000000000000000020816681711721685132943093776703e-02
8.100000000000004973799150320701301097869873046875e-01,8.288636634653297197150578767832485027611255645752e-02,4.095852692546480405821895942608534824103116989136e-02,1.000000000000000020816681711721685132943093776703e-02
8.200000000000005062616992290713824331760406494141e-01,8.292919120063457771863113521249033510684967041016e-02,4.097577367997447955749734660457761492580175399780e-02,1.000000000000000020816681711721685132943093776703e-02
8.300000000000005151434834260726347565650939941406e-01,8.297219851179424288112329577415948733687400817871e-02,4.099315038736783128880958315676252823323011398315e-02,1.000000000000000020816681711721685132943093776703e-02
8.400000000000005240252676230738870799541473388672e-01,8.301538855082207790658799240191001445055007934570e-02,4.101065696769988500047787738367333076894283294678e-02,1.000000000000000020816681711721685132943093776703e-02
8.500000000000005329070518200751394033432006835938e-01,8.305876158922444185694899942973279394209384918213e-02,4.102829334065507399520456033314985688775777816772e-02,1.000000000000000020816681711721685132943093776703e-02
8.600000000000005417888360170763917267322540283203e-01,8.310231789920217992939655005102395080029964447021e-02,4.104605942553878061840322288844618014991283416748e-02,1.000000000000000020816681711721685132943093776703e-02
8.700000000000005506706202140776440501213073730469e-01,8.314605775364869444388205010909587144851684570312e-02,4.106395514126880141869690987732610665261745452881e-02,1.000000000000000020816681711721685132943093776703e-02
8.800000000000005595524044110788963735103607177734e-01,8.318998142614808521955183095997199416160583496094e-02,4.108198040636678455284069855224515777081251144409e-02,1.000000000000000020816681711721685132943093776703e-02
8.900000000000005684341886080801486968994140625000e-01,8.323408919097320668445405544844106771051883697510e-02,4.110013513894959086281133409102039877325296401978e-02,1.000000000000000020816681711721685132943093776703e-02
