%time(s) 	 x-pos 	 y-pos 
1.00000000e-02	9.99425652e-01	5.98844689e-02
2.00000000e-02	9.97312914e-01	2.02808845e-02
3.00000000e-02	9.93708360e-01	-1.87680402e-02
4.00000000e-02	9.88658719e-01	-5.72218361e-02
5.00000000e-02	9.82210843e-01	-9.50422594e-02
6.00000000e-02	9.74411670e-01	-1.32193270e-01
7.00000000e-02	9.65308176e-01	-1.68641001e-01
8.00000000e-02	9.54947331e-01	-2.04353737e-01
9.00000000e-02	9.43376038e-01	-2.39301879e-01
1.00000000e-01	9.30641090e-01	-2.73457905e-01
1.10000000e-01	9.16789104e-01	-3.06796347e-01
1.20000000e-01	9.01866467e-01	-3.39293734e-01
1.30000000e-01	8.85919281e-01	-3.70928557e-01
1.40000000e-01	8.68993306e-01	-4.01681219e-01
1.50000000e-01	8.51133903e-01	-4.31533980e-01
1.60000000e-01	8.32385981e-01	-4.60470912e-01
1.70000000e-01	8.12793952e-01	-4.88477836e-01
1.80000000e-01	7.92401674e-01	-5.15542265e-01
1.90000000e-01	7.71252410e-01	-5.41653339e-01
2.00000000e-01	7.49388791e-01	-5.66801771e-01
2.10000000e-01	7.26852769e-01	-5.90979772e-01
2.20000000e-01	7.03685591e-01	-6.14180997e-01
2.30000000e-01	6.79927763e-01	-6.36400472e-01
2.40000000e-01	6.55619026e-01	-6.57634529e-01
2.50000000e-01	6.30798333e-01	-6.77880742e-01
2.60000000e-01	6.05503833e-01	-6.97137859e-01
2.70000000e-01	5.79772855e-01	-7.15405739e-01
2.80000000e-01	5.53641891e-01	-7.32685287e-01
2.90000000e-01	5.27146601e-01	-7.48978390e-01
3.00000000e-01	5.00321799e-01	-7.64287858e-01
3.10000000e-01	4.73201458e-01	-7.78617369e-01
3.20000000e-01	4.45818711e-01	-7.91971400e-01
3.30000000e-01	4.18205857e-01	-8.04355183e-01
3.40000000e-01	3.90394373e-01	-8.15774646e-01
3.50000000e-01	3.62414917e-01	-8.26236368e-01
3.60000000e-01	3.34297349e-01	-8.35747527e-01
3.70000000e-01	3.06070743e-01	-8.44315860e-01
3.80000000e-01	2.77763403e-01	-8.51949615e-01
3.90000000e-01	2.49402885e-01	-8.58657517e-01
4.00000000e-01	2.21016010e-01	-8.64448733e-01
4.10000000e-01	1.92628894e-01	-8.69332835e-01
4.20000000e-01	1.64266959e-01	-8.73319774e-01
4.30000000e-01	1.35954962e-01	-8.76419844e-01
4.40000000e-01	1.07717015e-01	-8.78643668e-01
4.50000000e-01	7.95766030e-02	-8.80002169e-01
4.60000000e-01	5.15566161e-02	-8.80506558e-01
4.70000000e-01	2.36793619e-02	-8.80168308e-01
4.80000000e-01	-4.03341244e-03	-8.78999145e-01
4.90000000e-01	-3.15604938e-02	-8.77011037e-01
5.00000000e-01	-5.88811910e-02	-8.74216183e-01
5.10000000e-01	-8.59753097e-02	-8.70627003e-01
5.20000000e-01	-1.12823138e-01	-8.66256137e-01
5.30000000e-01	-1.39405433e-01	-8.61116435e-01
5.40000000e-01	-1.65703397e-01	-8.55220960e-01
5.50000000e-01	-1.91698677e-01	-8.48582985e-01
5.60000000e-01	-2.17373338e-01	-8.41215991e-01
5.70000000e-01	-2.42709865e-01	-8.33133670e-01
5.80000000e-01	-2.67691147e-01	-8.24349930e-01
5.90000000e-01	-2.92300471e-01	-8.14878894e-01
6.00000000e-01	-3.16521520e-01	-8.04734904e-01
6.10000000e-01	-3.40338363e-01	-7.93932524e-01
6.20000000e-01	-3.63735455e-01	-7.82486550e-01
6.30000000e-01	-3.86697640e-01	-7.70412007e-01
6.40000000e-01	-4.09210148e-01	-7.57724156e-01
6.50000000e-01	-4.31258596e-01	-7.44438499e-01
6.60000000e-01	-4.52828996e-01	-7.30570778e-01
6.70000000e-01	-4.73907760e-01	-7.16136985e-01
6.80000000e-01	-4.94481702e-01	-7.01153357e-01
6.90000000e-01	-5.14538049e-01	-6.85636383e-01
7.00000000e-01	-5.34064450e-01	-6.69602800e-01
7.10000000e-01	-5.53048986e-01	-6.53069596e-01
7.20000000e-01	-5.71480180e-01	-6.36054004e-01
7.30000000e-01	-5.89347009e-01	-6.18573504e-01
7.40000000e-01	-6.06638915e-01	-6.00645816e-01
7.50000000e-01	-6.23345821e-01	-5.82288896e-01
7.60000000e-01	-6.39458138e-01	-5.63520928e-01
7.70000000e-01	-6.54966785e-01	-5.44360313e-01
7.80000000e-01	-6.69863202e-01	-5.24825665e-01
7.90000000e-01	-6.84139354e-01	-5.04935796e-01
8.00000000e-01	-6.97787755e-01	-4.84709703e-01
8.10000000e-01	-7.10801473e-01	-4.64166558e-01
8.20000000e-01	-7.23174150e-01	-4.43325686e-01
8.30000000e-01	-7.34900003e-01	-4.22206554e-01
8.40000000e-01	-7.45973846e-01	-4.00828750e-01
8.50000000e-01	-7.56391087e-01	-3.79211966e-01
8.60000000e-01	-7.66147751e-01	-3.57375973e-01
8.70000000e-01	-7.75240475e-01	-3.35340607e-01
8.80000000e-01	-7.83666523e-01	-3.13125736e-01
8.90000000e-01	-7.91423785e-01	-2.90751249e-01
9.00000000e-01	-7.98510784e-01	-2.68237022e-01
9.10000000e-01	-8.04926679e-01	-2.45602899e-01
9.20000000e-01	-8.10671259e-01	-2.22868664e-01
9.30000000e-01	-8.15744952e-01	-2.00054020e-01
9.40000000e-01	-8.20148814e-01	-1.77178557e-01
9.50000000e-01	-8.23884531e-01	-1.54261731e-01
9.60000000e-01	-8.26954404e-01	-1.31322839e-01
9.70000000e-01	-8.29361352e-01	-1.08380992e-01
9.80000000e-01	-8.31108898e-01	-8.54550879e-02
9.90000000e-01	-8.32201156e-01	-6.25637931e-02
1.00000000e+00	-8.32642824e-01	-3.97255141e-02
1.01000000e+00	-8.32439166e-01	-1.69583738e-02
1.02000000e+00	-8.31595999e-01	5.71980646e-03
1.03000000e+00	-8.30119676e-01	2.82915326e-02
1.04000000e+00	-8.28017070e-01	5.07396555e-02
1.05000000e+00	-8.25295553e-01	7.30473895e-02
1.06000000e+00	-8.21962973e-01	9.51983314e-02
1.07000000e+00	-8.18027642e-01	1.17176478e-01
1.08000000e+00	-8.13498308e-01	1.38966238e-01
1.09000000e+00	-8.08384132e-01	1.60552450e-01
1.10000000e+00	-8.02694669e-01	1.81920390e-01
1.11000000e+00	-7.96439842e-01	2.03055786e-01
1.12000000e+00	-7.89629918e-01	2.23944823e-01
1.13000000e+00	-7.82275484e-01	2.44574156e-01
1.14000000e+00	-7.74387423e-01	2.64930911e-01
1.15000000e+00	-7.65976892e-01	2.85002694e-01
1.16000000e+00	-7.57055292e-01	3.04777590e-01
1.17000000e+00	-7.47634251e-01	3.24244169e-01
1.18000000e+00	-7.37725595e-01	3.43391483e-01
1.19000000e+00	-7.27341328e-01	3.62209062e-01
1.20000000e+00	-7.16493607e-01	3.80686921e-01
1.21000000e+00	-7.05194719e-01	3.98815546e-01
1.22000000e+00	-6.93457064e-01	4.16585894e-01
1.23000000e+00	-6.81293128e-01	4.33989389e-01
1.24000000e+00	-6.68715469e-01	4.51017907e-01
1.25000000e+00	-6.55736695e-01	4.67663775e-01
1.26000000e+00	-6.42369445e-01	4.83919760e-01
1.27000000e+00	-6.28626370e-01	4.99779056e-01
1.28000000e+00	-6.14520125e-01	5.15235278e-01
1.29000000e+00	-6.00063346e-01	5.30282447e-01
1.30000000e+00	-5.85268636e-01	5.44914977e-01
1.31000000e+00	-5.70148555e-01	5.59127668e-01
1.32000000e+00	-5.54715611e-01	5.72915687e-01
1.33000000e+00	-5.38982243e-01	5.86274558e-01
1.34000000e+00	-5.22960812e-01	5.99200148e-01
1.35000000e+00	-5.06663599e-01	6.11688654e-01
1.36000000e+00	-4.90102788e-01	6.23736587e-01
1.37000000e+00	-4.73290470e-01	6.35340761e-01
1.38000000e+00	-4.56238625e-01	6.46498275e-01
1.39000000e+00	-4.38959133e-01	6.57206505e-01
1.40000000e+00	-4.21463757e-01	6.67463090e-01
1.41000000e+00	-4.03764149e-01	6.77265913e-01
1.42000000e+00	-3.85871845e-01	6.86613096e-01
1.43000000e+00	-3.67798264e-01	6.95502983e-01
1.44000000e+00	-3.49554712e-01	7.03934130e-01
1.45000000e+00	-3.31152380e-01	7.11905290e-01
1.46000000e+00	-3.12602344e-01	7.19415410e-01
1.47000000e+00	-2.93915573e-01	7.26463613e-01
1.48000000e+00	-2.75102929e-01	7.33049192e-01
1.49000000e+00	-2.56175169e-01	7.39171601e-01
1.50000000e+00	-2.37142951e-01	7.44830445e-01
1.51000000e+00	-2.18016841e-01	7.50025476e-01
1.52000000e+00	-1.98807315e-01	7.54756582e-01
1.53000000e+00	-1.79524762e-01	7.59023783e-01
1.54000000e+00	-1.60179499e-01	7.62827226e-01
1.55000000e+00	-1.40781767e-01	7.66167179e-01
1.56000000e+00	-1.21341743e-01	7.69044031e-01
1.57000000e+00	-1.01869542e-01	7.71458283e-01
1.58000000e+00	-8.23752298e-02	7.73410551e-01
1.59000000e+00	-6.28688221e-02	7.74901563e-01
1.60000000e+00	-4.33602953e-02	7.75932158e-01
1.61000000e+00	-2.38595903e-02	7.76503284e-01
1.62000000e+00	-4.37662014e-03	7.76616003e-01
1.63000000e+00	1.50787245e-02	7.76271492e-01
1.64000000e+00	3.44965719e-02	7.75471043e-01
1.65000000e+00	5.38670599e-02	7.74216067e-01
1.66000000e+00	7.31803367e-02	7.72508095e-01
1.67000000e+00	9.24265528e-02	7.70348790e-01
1.68000000e+00	1.11595858e-01	7.67739943e-01
1.69000000e+00	1.30678398e-01	7.64683485e-01
1.70000000e+00	1.49664311e-01	7.61181488e-01
1.71000000e+00	1.68543731e-01	7.57236174e-01
1.72000000e+00	1.87306776e-01	7.52849923e-01
1.73000000e+00	2.05943559e-01	7.48025275e-01
1.74000000e+00	2.24444177e-01	7.42764943e-01
1.75000000e+00	2.42798720e-01	7.37071820e-01
1.76000000e+00	2.60997269e-01	7.30948982e-01
1.77000000e+00	2.79029897e-01	7.24399702e-01
1.78000000e+00	2.96886673e-01	7.17427456e-01
1.79000000e+00	3.14557670e-01	7.10035929e-01
1.80000000e+00	3.32032962e-01	7.02229027e-01
1.81000000e+00	3.49302636e-01	6.94010880e-01
1.82000000e+00	3.66356794e-01	6.85385854e-01
1.83000000e+00	3.83185563e-01	6.76358559e-01
1.84000000e+00	3.99779100e-01	6.66933853e-01
1.85000000e+00	4.16127604e-01	6.57116851e-01
1.86000000e+00	4.32221322e-01	6.46912930e-01
1.87000000e+00	4.48050562e-01	6.36327737e-01
1.88000000e+00	4.63605701e-01	6.25367191e-01
1.89000000e+00	4.78877202e-01	6.14037494e-01
1.90000000e+00	4.93855618e-01	6.02345126e-01
1.91000000e+00	5.08531611e-01	5.90296859e-01
1.92000000e+00	5.22895961e-01	5.77899751e-01
1.93000000e+00	5.36939585e-01	5.65161149e-01
1.94000000e+00	5.50653545e-01	5.52088695e-01
1.95000000e+00	5.64029067e-01	5.38690321e-01
1.96000000e+00	5.77057553e-01	5.24974249e-01
1.97000000e+00	5.89730596e-01	5.10948988e-01
1.98000000e+00	6.02039995e-01	4.96623336e-01
1.99000000e+00	6.13977774e-01	4.82006371e-01
2.00000000e+00	6.25536191e-01	4.67107444e-01
2.01000000e+00	6.36707754e-01	4.51936181e-01
2.02000000e+00	6.47485240e-01	4.36502468e-01
2.03000000e+00	6.57861703e-01	4.20816445e-01
2.04000000e+00	6.67830495e-01	4.04888500e-01
2.05000000e+00	6.77385273e-01	3.88729254e-01
2.06000000e+00	6.86520015e-01	3.72349554e-01
2.07000000e+00	6.95229035e-01	3.55760456e-01
2.08000000e+00	7.03506990e-01	3.38973220e-01
2.09000000e+00	7.11348892e-01	3.21999286e-01
2.10000000e+00	7.18750121e-01	3.04850269e-01
2.11000000e+00	7.25706434e-01	2.87537937e-01
2.12000000e+00	7.32213969e-01	2.70074197e-01
2.13000000e+00	7.38269258e-01	2.52471080e-01
2.14000000e+00	7.43869230e-01	2.34740721e-01
2.15000000e+00	7.49011218e-01	2.16895345e-01
2.16000000e+00	7.53692961e-01	1.98947247e-01
2.17000000e+00	7.57912612e-01	1.80908774e-01
2.18000000e+00	7.61668736e-01	1.62792304e-01
2.19000000e+00	7.64960310e-01	1.44610233e-01
2.20000000e+00	7.67786729e-01	1.26374954e-01
2.21000000e+00	7.70147797e-01	1.08098835e-01
2.22000000e+00	7.72043728e-01	8.97942078e-02
2.23000000e+00	7.73475143e-01	7.14733431e-02
2.24000000e+00	7.74443066e-01	5.31484369e-02
2.25000000e+00	7.74948917e-01	3.48315904e-02
2.26000000e+00	7.74994503e-01	1.65347958e-02
2.27000000e+00	7.74582013e-01	-1.73008292e-03
2.28000000e+00	7.73714009e-01	-1.99513242e-02
2.29000000e+00	7.72393418e-01	-3.81173631e-02
2.30000000e+00	7.70623517e-01	-5.62168097e-02
2.31000000e+00	7.68407925e-01	-7.42384576e-02
2.32000000e+00	7.65750591e-01	-9.21713010e-02
2.33000000e+00	7.62655781e-01	-1.10004546e-01
2.34000000e+00	7.59128064e-01	-1.27727617e-01
2.35000000e+00	7.55172299e-01	-1.45330177e-01
2.36000000e+00	7.50793620e-01	-1.62802124e-01
2.37000000e+00	7.45997426e-01	-1.80133612e-01
2.38000000e+00	7.40789359e-01	-1.97315047e-01
2.39000000e+00	7.35175296e-01	-2.14337102e-01
2.40000000e+00	7.29161328e-01	-2.31190719e-01
2.41000000e+00	7.22753747e-01	-2.47867111e-01
2.42000000e+00	7.15959035e-01	-2.64357770e-01
2.43000000e+00	7.08783840e-01	-2.80654465e-01
2.44000000e+00	7.01234970e-01	-2.96749246e-01
2.45000000e+00	6.93319374e-01	-3.12634448e-01
2.46000000e+00	6.85044125e-01	-3.28302681e-01
2.47000000e+00	6.76416411e-01	-3.43746838e-01
2.48000000e+00	6.67443517e-01	-3.58960089e-01
2.49000000e+00	6.58132813e-01	-3.73935879e-01
2.50000000e+00	6.48491742e-01	-3.88667922e-01
2.51000000e+00	6.38527805e-01	-4.03150204e-01
2.52000000e+00	6.28248551e-01	-4.17376968e-01
2.53000000e+00	6.17661562e-01	-4.31342716e-01
2.54000000e+00	6.06774449e-01	-4.45042201e-01
2.55000000e+00	5.95594835e-01	-4.58470418e-01
2.56000000e+00	5.84130349e-01	-4.71622599e-01
2.57000000e+00	5.72388615e-01	-4.84494208e-01
2.58000000e+00	5.60377246e-01	-4.97080928e-01
2.59000000e+00	5.48103833e-01	-5.09378655e-01
2.60000000e+00	5.35575944e-01	-5.21383492e-01
2.61000000e+00	5.22801111e-01	-5.33091737e-01
2.62000000e+00	5.09786827e-01	-5.44499874e-01
2.63000000e+00	4.96540545e-01	-5.55604571e-01
2.64000000e+00	4.83069668e-01	-5.66402659e-01
2.65000000e+00	4.69381549e-01	-5.76891132e-01
2.66000000e+00	4.55483489e-01	-5.87067137e-01
2.67000000e+00	4.41382733e-01	-5.96927963e-01
2.68000000e+00	4.27086470e-01	-6.06471031e-01
2.69000000e+00	4.12601831e-01	-6.15693889e-01
2.70000000e+00	3.97935891e-01	-6.24594202e-01
2.71000000e+00	3.83095667e-01	-6.33169742e-01
2.72000000e+00	3.68088121e-01	-6.41418383e-01
2.73000000e+00	3.52920161e-01	-6.49338093e-01
2.74000000e+00	3.37598643e-01	-6.56926921e-01
2.75000000e+00	3.22130377e-01	-6.64183000e-01
2.76000000e+00	3.06522122e-01	-6.71104530e-01
2.77000000e+00	2.90780600e-01	-6.77689781e-01
2.78000000e+00	2.74912493e-01	-6.83937080e-01
2.79000000e+00	2.58924449e-01	-6.89844809e-01
2.80000000e+00	2.42823090e-01	-6.95411401e-01
2.81000000e+00	2.26615013e-01	-7.00635334e-01
2.82000000e+00	2.10306798e-01	-7.05515127e-01
2.83000000e+00	1.93905010e-01	-7.10049338e-01
2.84000000e+00	1.77416212e-01	-7.14236562e-01
2.85000000e+00	1.60846967e-01	-7.18075426e-01
2.86000000e+00	1.44203840e-01	-7.21564591e-01
2.87000000e+00	1.27493415e-01	-7.24702748e-01
2.88000000e+00	1.10722290e-01	-7.27488619e-01
2.89000000e+00	9.38970945e-02	-7.29920957e-01
2.90000000e+00	7.70244855e-02	-7.31998548e-01
2.91000000e+00	6.01111616e-02	-7.33720212e-01
2.92000000e+00	4.31638662e-02	-7.35084804e-01
2.93000000e+00	2.61893943e-02	-7.36091216e-01
2.94000000e+00	9.19459929e-03	-7.36738383e-01
2.95000000e+00	-7.81360075e-03	-7.37025286e-01
2.96000000e+00	-2.48282187e-02	-7.36950956e-01
2.97000000e+00	-4.18421922e-02	-7.36514479e-01
2.98000000e+00	-5.88483794e-02	-7.35715001e-01
2.99000000e+00	-7.58395526e-02	-7.34551737e-01
3.00000000e+00	-9.28083946e-02	-7.33023972e-01
3.01000000e+00	-1.09747496e-01	-7.31131077e-01
3.02000000e+00	-1.26649349e-01	-7.28872507e-01
3.03000000e+00	-1.43506348e-01	-7.26247816e-01
3.04000000e+00	-1.60310784e-01	-7.23256665e-01
3.05000000e+00	-1.77054843e-01	-7.19898825e-01
3.06000000e+00	-1.93730610e-01	-7.16174195e-01
3.07000000e+00	-2.10330062e-01	-7.12082804e-01
3.08000000e+00	-2.26845070e-01	-7.07624827e-01
3.09000000e+00	-2.43267403e-01	-7.02800590e-01
3.10000000e+00	-2.59588727e-01	-6.97610585e-01
3.11000000e+00	-2.75800605e-01	-6.92055475e-01
3.12000000e+00	-2.91894507e-01	-6.86136111e-01
3.13000000e+00	-3.07861807e-01	-6.79853538e-01
3.14000000e+00	-3.23693793e-01	-6.73209006e-01
3.15000000e+00	-3.39381669e-01	-6.66203985e-01
3.16000000e+00	-3.54916565e-01	-6.58840166e-01
3.17000000e+00	-3.70289541e-01	-6.51119481e-01
3.18000000e+00	-3.85491595e-01	-6.43044109e-01
3.19000000e+00	-4.00513677e-01	-6.34616481e-01
3.20000000e+00	-4.15346694e-01	-6.25839297e-01
3.21000000e+00	-4.29981521e-01	-6.16715529e-01
3.22000000e+00	-4.44409014e-01	-6.07248432e-01
3.23000000e+00	-4.58620022e-01	-5.97441551e-01
3.24000000e+00	-4.72605398e-01	-5.87298727e-01
3.25000000e+00	-4.86356014e-01	-5.76824101e-01
3.26000000e+00	-4.99862776e-01	-5.66022126e-01
3.27000000e+00	-5.13116634e-01	-5.54897565e-01
3.28000000e+00	-5.26108605e-01	-5.43455499e-01
3.29000000e+00	-5.38829779e-01	-5.31701326e-01
3.30000000e+00	-5.51271346e-01	-5.19640765e-01
3.31000000e+00	-5.63424603e-01	-5.07279854e-01
3.32000000e+00	-5.75280976e-01	-4.94624958e-01
3.33000000e+00	-5.86832030e-01	-4.81682758e-01
3.34000000e+00	-5.98069495e-01	-4.68460255e-01
3.35000000e+00	-6.08985279e-01	-4.54964759e-01
3.36000000e+00	-6.19571483e-01	-4.41203895e-01
3.37000000e+00	-6.29820417e-01	-4.27185587e-01
3.38000000e+00	-6.39724623e-01	-4.12918057e-01
3.39000000e+00	-6.49276883e-01	-3.98409817e-01
3.40000000e+00	-6.58470241e-01	-3.83669656e-01
3.41000000e+00	-6.67298013e-01	-3.68706635e-01
3.42000000e+00	-6.75753805e-01	-3.53530071e-01
3.43000000e+00	-6.83831528e-01	-3.38149528e-01
3.44000000e+00	-6.91525407e-01	-3.22574800e-01
3.45000000e+00	-6.98829997e-01	-3.06815903e-01
3.46000000e+00	-7.05740195e-01	-2.90883056e-01
3.47000000e+00	-7.12251247e-01	-2.74786666e-01
3.48000000e+00	-7.18358761e-01	-2.58537313e-01
3.49000000e+00	-7.24058715e-01	-2.42145728e-01
3.50000000e+00	-7.29347464e-01	-2.25622784e-01
3.51000000e+00	-7.34221747e-01	-2.08979471e-01
3.52000000e+00	-7.38678692e-01	-1.92226882e-01
3.53000000e+00	-7.42715818e-01	-1.75376189e-01
3.54000000e+00	-7.46331045e-01	-1.58438631e-01
3.55000000e+00	-7.49522687e-01	-1.41425490e-01
3.56000000e+00	-7.52289457e-01	-1.24348074e-01
3.57000000e+00	-7.54630467e-01	-1.07217696e-01
3.58000000e+00	-7.56545223e-01	-9.00456599e-02
3.59000000e+00	-7.58033627e-01	-7.28432356e-02
3.60000000e+00	-7.59095967e-01	-5.56216465e-02
3.61000000e+00	-7.59732916e-01	-3.83920469e-02
3.62000000e+00	-7.59945523e-01	-2.11655084e-02
3.63000000e+00	-7.59735206e-01	-3.95300077e-03
3.64000000e+00	-7.59103748e-01	1.32346225e-02
3.65000000e+00	-7.58053280e-01	3.03866425e-02
3.66000000e+00	-7.56586277e-01	4.74924865e-02
3.67000000e+00	-7.54705545e-01	6.45417440e-02
3.68000000e+00	-7.52414209e-01	8.15241776e-02
3.69000000e+00	-7.49715700e-01	9.84297387e-02
3.70000000e+00	-7.46613745e-01	1.15248576e-01
3.71000000e+00	-7.43112350e-01	1.31971047e-01
3.72000000e+00	-7.39215790e-01	1.48587727e-01
3.73000000e+00	-7.34928589e-01	1.65089417e-01
3.74000000e+00	-7.30255512e-01	1.81467154e-01
3.75000000e+00	-7.25201547e-01	1.97712213e-01
3.76000000e+00	-7.19771888e-01	2.13816115e-01
3.77000000e+00	-7.13971924e-01	2.29770631e-01
3.78000000e+00	-7.07807224e-01	2.45567785e-01
3.79000000e+00	-7.01283516e-01	2.61199856e-01
3.80000000e+00	-6.94406681e-01	2.76659381e-01
3.81000000e+00	-6.87182731e-01	2.91939156e-01
3.82000000e+00	-6.79617799e-01	3.07032231e-01
3.83000000e+00	-6.71718124e-01	3.21931913e-01
3.84000000e+00	-6.63490035e-01	3.36631763e-01
3.85000000e+00	-6.54939941e-01	3.51125595e-01
3.86000000e+00	-6.46074319e-01	3.65407465e-01
3.87000000e+00	-6.36899697e-01	3.79471678e-01
3.88000000e+00	-6.27422643e-01	3.93312772e-01
3.89000000e+00	-6.17649761e-01	4.06925521e-01
3.90000000e+00	-6.07587670e-01	4.20304920e-01
3.91000000e+00	-5.97243002e-01	4.33446189e-01
3.92000000e+00	-5.86622389e-01	4.46344755e-01
3.93000000e+00	-5.75732454e-01	4.58996253e-01
3.94000000e+00	-5.64579806e-01	4.71396513e-01
3.95000000e+00	-5.53171030e-01	4.83541552e-01
3.96000000e+00	-5.41512681e-01	4.95427568e-01
3.97000000e+00	-5.29611280e-01	5.07050930e-01
3.98000000e+00	-5.17473307e-01	5.18408165e-01
3.99000000e+00	-5.05105194e-01	5.29495958e-01
4.00000000e+00	-4.92513328e-01	5.40311134e-01
4.01000000e+00	-4.79704044e-01	5.50850653e-01
4.02000000e+00	-4.66683622e-01	5.61111600e-01
4.03000000e+00	-4.53458286e-01	5.71091173e-01
4.04000000e+00	-4.40034204e-01	5.80786681e-01
4.05000000e+00	-4.26417489e-01	5.90195527e-01
4.06000000e+00	-4.12614194e-01	5.99315207e-01
4.07000000e+00	-3.98630320e-01	6.08143293e-01
4.08000000e+00	-3.84471812e-01	6.16677432e-01
4.09000000e+00	-3.70144568e-01	6.24915334e-01
4.10000000e+00	-3.55654431e-01	6.32854766e-01
4.11000000e+00	-3.41007203e-01	6.40493543e-01
4.12000000e+00	-3.26208643e-01	6.47829524e-01
4.13000000e+00	-3.11264472e-01	6.54860600e-01
4.14000000e+00	-2.96180383e-01	6.61584695e-01
4.15000000e+00	-2.80962034e-01	6.67999756e-01
4.16000000e+00	-2.65615068e-01	6.74103747e-01
4.17000000e+00	-2.50145112e-01	6.79894646e-01
4.18000000e+00	-2.34557782e-01	6.85370442e-01
4.19000000e+00	-2.18858692e-01	6.90529128e-01
4.20000000e+00	-2.03053460e-01	6.95368703e-01
4.21000000e+00	-1.87147718e-01	6.99887163e-01
4.22000000e+00	-1.71147116e-01	7.04082506e-01
4.23000000e+00	-1.55057329e-01	7.07952725e-01
4.24000000e+00	-1.38884071e-01	7.11495811e-01
4.25000000e+00	-1.22633094e-01	7.14709753e-01
4.26000000e+00	-1.06310205e-01	7.17592535e-01
4.27000000e+00	-8.99212652e-02	7.20142142e-01
4.28000000e+00	-7.34722054e-02	7.22356561e-01
4.29000000e+00	-5.69690280e-02	7.24233779e-01
4.30000000e+00	-4.04178202e-02	7.25771794e-01
4.31000000e+00	-2.38247570e-02	7.26968615e-01
4.32000000e+00	-7.19611204e-03	7.27822266e-01
4.33000000e+00	9.46173778e-03	7.28330791e-01
